    E(keV)         f1           f2     
   .10000E+01   .52141E+02  -.42599E+02
   .10040E+01   .52357E+02  -.42478E+02
   .10084E+01   .52585E+02  -.42345E+02
   .10200E+01   .53159E+02  -.42005E+02
   .10300E+01   .53628E+02  -.41711E+02
   .10410E+01   .54116E+02  -.41389E+02
   .10550E+01   .54698E+02  -.40980E+02
   .10700E+01   .55264E+02  -.40542E+02
   .10800E+01   .55604E+02  -.40250E+02
   .10900E+01   .55906E+02  -.39958E+02
   .11000E+01   .56158E+02  -.39665E+02
   .11050E+01   .56258E+02  -.39519E+02
   .11100E+01   .56338E+02  -.39373E+02
   .11170E+01   .56398E+02  -.39169E+02
   .11210E+01   .56391E+02  -.39052E+02
   .11240E+01   .56356E+02  -.38964E+02
   .11280E+01   .56254E+02  -.38847E+02
   .11310E+01   .56110E+02  -.38760E+02
   .11330E+01   .55960E+02  -.38701E+02
   .11350E+01   .55740E+02  -.38643E+02
   .11370E+01   .55391E+02  -.38585E+02
   .11388E+01   .54096E+02  -.38532E+02
   .11388E+01   .54858E+02  -.41409E+02
   .11388E+01   .55620E+02  -.38530E+02
   .11395E+01   .54542E+02  -.38512E+02
   .11401E+01   .50364E+02  -.38493E+02
   .11402E+01   .54343E+02  -.53418E+02
   .11402E+01   .58322E+02  -.38492E+02
   .11410E+01   .53838E+02  -.38469E+02
   .11419E+01   .52661E+02  -.38444E+02
   .11427E+01   .50238E+02  -.38420E+02
   .11436E+01   .57394E+01  -.38396E+02
   .11436E+01   .44458E+02  -.18508E+03
   .11436E+01   .83145E+02  -.38395E+02
   .11438E+01   .38283E+02  -.38388E+02
   .11441E+01  -.14133E+03  -.38381E+02
   .11441E+01   .56781E+02  -.78197E+03
   .11441E+01   .25490E+03  -.38379E+02
   .11446E+01   .66218E+02  -.38366E+02
   .11451E+01   .45250E+02  -.38352E+02
   .11451E+01   .60177E+02  -.95045E+02
   .11451E+01   .75107E+02  -.38350E+02
   .11454E+01   .58610E+02  -.38342E+02
   .11458E+01   .33528E+02  -.38333E+02
   .11458E+01   .62892E+02  -.12089E+03
   .11458E+01   .83434E+02  -.38332E+02
   .11459E+01   .61266E+02  -.38328E+02
   .11460E+01   .54159E+02  -.38325E+02
   .11460E+01   .59262E+02  -.58846E+02
   .11461E+01   .64379E+02  -.38324E+02
   .11462E+01   .58109E+02  -.38321E+02
   .11463E+01   .49477E+02  -.38318E+02
   .11463E+01   .58287E+02  -.71346E+02
   .11463E+01   .66721E+02  -.38316E+02
   .11464E+01   .60561E+02  -.38315E+02
   .11464E+01   .57063E+02  -.38314E+02
   .11464E+01   .58944E+02  -.48082E+02
   .11465E+01   .60893E+02  -.38313E+02
   .11465E+01   .57578E+02  -.38312E+02
   .11465E+01   .53806E+02  -.38310E+02
   .11466E+01   .57692E+02  -.55172E+02
   .11466E+01   .61404E+02  -.38309E+02
   .11466E+01   .60215E+02  -.38309E+02
   .11466E+01   .58932E+02  -.38309E+02
   .11466E+01   .58822E+02  -.43723E+02
   .11466E+01   .59061E+02  -.38307E+02
   .11467E+01   .57321E+02  -.38307E+02
   .11467E+01   .56090E+02  -.38306E+02
   .11467E+01   .57494E+02  -.48129E+02
   .11467E+01   .58908E+02  -.38305E+02
   .11468E+01   .57623E+02  -.42356E+02
   .11468E+01   .56670E+02  -.38304E+02
   .11468E+01   .56559E+02  -.40860E+02
   .11468E+01   .57342E+02  -.45974E+02
   .11468E+01   .57563E+02  -.42138E+02
   .11468E+01   .57449E+02  -.38302E+02
   .11468E+01   .55615E+02  -.38302E+02
   .11468E+01   .54879E+02  -.41843E+02
   .11469E+01   .56065E+02  -.48559E+02
   .11469E+01   .57059E+02  -.44894E+02
   .11469E+01   .58069E+02  -.41229E+02
   .11469E+01   .56970E+02  -.41228E+02
   .11469E+01   .57484E+02  -.45449E+02
   .11469E+01   .58044E+02  -.47560E+02
   .11469E+01   .58544E+02  -.44388E+02
   .11470E+01   .58856E+02  -.41216E+02
   .11470E+01   .59329E+02  -.46690E+02
   .11470E+01   .60098E+02  -.41206E+02
   .11470E+01   .59947E+02  -.44674E+02
   .11471E+01   .60570E+02  -.41195E+02
   .11471E+01   .59602E+02  -.41187E+02
   .11471E+01   .59243E+02  -.41179E+02
   .11472E+01   .59044E+02  -.41171E+02
   .11472E+01   .58941E+02  -.41165E+02
   .11473E+01   .58728E+02  -.41144E+02
   .11474E+01   .58605E+02  -.41124E+02
   .11475E+01   .58521E+02  -.41104E+02
   .11476E+01   .58457E+02  -.41084E+02
   .11478E+01   .58365E+02  -.41044E+02
   .11480E+01   .58317E+02  -.41021E+02
   .11481E+01   .58278E+02  -.40997E+02
   .11483E+01   .58236E+02  -.40966E+02
   .11485E+01   .58198E+02  -.40935E+02
   .11489E+01   .58147E+02  -.40886E+02
   .11493E+01   .58108E+02  -.40838E+02
   .11497E+01   .58083E+02  -.40799E+02
   .11500E+01   .58067E+02  -.40770E+02
   .11508E+01   .58047E+02  -.40711E+02
   .11515E+01   .58042E+02  -.40658E+02
   .11522E+01   .58045E+02  -.40621E+02
   .11530E+01   .58058E+02  -.40577E+02
   .11545E+01   .58101E+02  -.40519E+02
   .11560E+01   .58160E+02  -.40461E+02
   .11575E+01   .58227E+02  -.40417E+02
   .11590E+01   .58303E+02  -.40373E+02
   .11620E+01   .58465E+02  -.40286E+02
   .11640E+01   .58576E+02  -.40228E+02
   .11670E+01   .58741E+02  -.40143E+02
   .11700E+01   .58907E+02  -.40057E+02
   .11740E+01   .59121E+02  -.39936E+02
   .11780E+01   .59324E+02  -.39815E+02
   .11850E+01   .59655E+02  -.39604E+02
   .11920E+01   .59972E+02  -.39403E+02
   .12000E+01   .60314E+02  -.39173E+02
   .12070E+01   .60599E+02  -.38982E+02
   .12150E+01   .60916E+02  -.38764E+02
   .12300E+01   .61484E+02  -.38355E+02
   .12420E+01   .61908E+02  -.38033E+02
   .12540E+01   .62314E+02  -.37711E+02
   .12620E+01   .62572E+02  -.37498E+02
   .12690E+01   .62791E+02  -.37312E+02
   .12770E+01   .63034E+02  -.37103E+02
   .12840E+01   .63242E+02  -.36920E+02
   .13000E+01   .63698E+02  -.36511E+02
   .13200E+01   .64230E+02  -.36000E+02
   .13350E+01   .64604E+02  -.35623E+02
   .13500E+01   .64953E+02  -.35245E+02
   .13700E+01   .65385E+02  -.34759E+02
   .13800E+01   .65582E+02  -.34515E+02
   .13900E+01   .65765E+02  -.34272E+02
   .13940E+01   .65833E+02  -.34176E+02
   .13980E+01   .65895E+02  -.34080E+02
   .14020E+01   .65953E+02  -.33984E+02
   .14060E+01   .65961E+02  -.33888E+02
   .14210E+01   .64645E+02  -.33528E+02
   .14211E+01   .65970E+02  -.37776E+02
   .14211E+01   .67295E+02  -.33527E+02
   .14234E+01   .65759E+02  -.33472E+02
   .14258E+01   .35452E+02  -.33417E+02
   .14258E+01   .66005E+02  -.13098E+03
   .14258E+01   .96557E+02  -.33416E+02
   .14266E+01   .67044E+02  -.33398E+02
   .14273E+01   .62374E+02  -.33381E+02
   .14273E+01   .66446E+02  -.46443E+02
   .14274E+01   .70519E+02  -.33380E+02
   .14276E+01   .66564E+02  -.33373E+02
   .14279E+01   .64366E+02  -.33367E+02
   .14280E+01   .66288E+02  -.39630E+02
   .14280E+01   .68207E+02  -.33365E+02
   .14281E+01   .66380E+02  -.33362E+02
   .14282E+01   .64864E+02  -.33360E+02
   .14283E+01   .66277E+02  -.38089E+02
   .14283E+01   .67687E+02  -.33358E+02
   .14283E+01   .66615E+02  -.33357E+02
   .14284E+01   .66431E+02  -.33357E+02
   .14284E+01   .66247E+02  -.33356E+02
   .14284E+01   .66087E+02  -.33356E+02
   .14284E+01   .65980E+02  -.33355E+02
   .14284E+01   .65791E+02  -.33483E+02
   .14284E+01   .65691E+02  -.33547E+02
   .14285E+01   .65530E+02  -.33675E+02
   .14285E+01   .65417E+02  -.33739E+02
   .14285E+01   .65228E+02  -.33804E+02
   .14285E+01   .65488E+02  -.33804E+02
   .14285E+01   .66087E+02  -.36385E+02
   .14286E+01   .66869E+02  -.33802E+02
   .14286E+01   .66290E+02  -.33801E+02
   .14286E+01   .65737E+02  -.33800E+02
   .14287E+01   .66365E+02  -.36052E+02
   .14287E+01   .66994E+02  -.33799E+02
   .14287E+01   .66543E+02  -.33798E+02
   .14288E+01   .66085E+02  -.33797E+02
   .14288E+01   .66370E+02  -.35128E+02
   .14288E+01   .66591E+02  -.33796E+02
   .14288E+01   .66363E+02  -.33796E+02
   .14289E+01   .66541E+02  -.35043E+02
   .14289E+01   .66758E+02  -.33794E+02
   .14289E+01   .66588E+02  -.33794E+02
   .14289E+01   .66244E+02  -.33793E+02
   .14289E+01   .66593E+02  -.35335E+02
   .14290E+01   .66931E+02  -.33792E+02
   .14290E+01   .66749E+02  -.33792E+02
   .14290E+01   .66515E+02  -.33791E+02
   .14290E+01   .66659E+02  -.34787E+02
   .14291E+01   .66733E+02  -.33790E+02
   .14291E+01   .66655E+02  -.33790E+02
   .14291E+01   .66721E+02  -.34708E+02
   .14291E+01   .66764E+02  -.33789E+02
   .14291E+01   .66797E+02  -.33789E+02
   .14291E+01   .66826E+02  -.34670E+02
   .14292E+01   .66883E+02  -.33787E+02
   .14292E+01   .66985E+02  -.33787E+02
   .14292E+01   .66994E+02  -.34304E+02
   .14292E+01   .67047E+02  -.33786E+02
   .14301E+01   .66584E+02  -.33766E+02
   .14310E+01   .66560E+02  -.33745E+02
   .14320E+01   .66565E+02  -.33723E+02
   .14330E+01   .66580E+02  -.33700E+02
   .14350E+01   .66621E+02  -.33654E+02
   .14370E+01   .66668E+02  -.33608E+02
   .14410E+01   .66763E+02  -.33516E+02
   .14450E+01   .66856E+02  -.33425E+02
   .14520E+01   .67012E+02  -.33265E+02
   .14600E+01   .67180E+02  -.33081E+02
   .14700E+01   .67377E+02  -.32852E+02
   .14800E+01   .67562E+02  -.32624E+02
   .15000E+01   .67906E+02  -.32166E+02
   .15060E+01   .68002E+02  -.32034E+02
   .15123E+01   .68100E+02  -.31896E+02
   .15300E+01   .68354E+02  -.31532E+02
   .15400E+01   .68484E+02  -.31326E+02
   .15500E+01   .68603E+02  -.31121E+02
   .15600E+01   .68707E+02  -.30915E+02
   .15700E+01   .68792E+02  -.30709E+02
   .15760E+01   .68826E+02  -.30586E+02
   .15830E+01   .68835E+02  -.30442E+02
   .15860E+01   .68818E+02  -.30380E+02
   .15890E+01   .68775E+02  -.30318E+02
   .15905E+01   .68732E+02  -.30288E+02
   .15920E+01   .68662E+02  -.30257E+02
   .15940E+01   .68433E+02  -.30216E+02
   .15954E+01   .67328E+02  -.30188E+02
   .15954E+01   .67507E+02  -.31042E+02
   .15954E+01   .67676E+02  -.30187E+02
   .15956E+01   .66461E+02  -.30183E+02
   .15958E+01   .54843E+02  -.30179E+02
   .15958E+01   .67953E+02  -.75436E+02
   .15959E+01   .81061E+02  -.30178E+02
   .15961E+01   .70411E+02  -.30174E+02
   .15962E+01   .67522E+02  -.30171E+02
   .15963E+01   .69661E+02  -.37889E+02
   .15963E+01   .71813E+02  -.30170E+02
   .15966E+01   .69254E+02  -.30163E+02
   .15969E+01   .68860E+02  -.30158E+02
   .15972E+01   .68337E+02  -.30152E+02
   .15975E+01   .64807E+02  -.30147E+02
   .15975E+01   .68388E+02  -.42735E+02
   .15975E+01   .71945E+02  -.30146E+02
   .15976E+01   .70395E+02  -.30145E+02
   .15976E+01   .69125E+02  -.30144E+02
   .15976E+01   .69555E+02  -.32797E+02
   .15977E+01   .70097E+02  -.30143E+02
   .15977E+01   .69065E+02  -.30141E+02
   .15978E+01   .68832E+02  -.30140E+02
   .15978E+01   .68659E+02  -.30139E+02
   .15979E+01   .68438E+02  -.30138E+02
   .15979E+01   .68333E+02  -.30138E+02
   .15979E+01   .68141E+02  -.30137E+02
   .15980E+01   .67967E+02  -.30137E+02
   .15980E+01   .67569E+02  -.30136E+02
   .15980E+01   .67211E+02  -.30299E+02
   .15980E+01   .66514E+02  -.30521E+02
   .15980E+01   .67048E+02  -.30627E+02
   .15981E+01   .68087E+02  -.36034E+02
   .15981E+01   .68588E+02  -.30709E+02
   .15981E+01   .69593E+02  -.30709E+02
   .15981E+01   .69365E+02  -.31928E+02
   .15982E+01   .69410E+02  -.30708E+02
   .15982E+01   .68757E+02  -.30706E+02
   .15983E+01   .67974E+02  -.30705E+02
   .15984E+01   .68642E+02  -.30704E+02
   .15984E+01   .68951E+02  -.30704E+02
   .15984E+01   .69556E+02  -.31328E+02
   .15984E+01   .69333E+02  -.30703E+02
   .15984E+01   .68958E+02  -.30702E+02
   .15985E+01   .68506E+02  -.30702E+02
   .15985E+01   .68923E+02  -.32686E+02
   .15985E+01   .69364E+02  -.30700E+02
   .15985E+01   .69160E+02  -.30700E+02
   .15986E+01   .68965E+02  -.30700E+02
   .15986E+01   .69097E+02  -.31963E+02
   .15986E+01   .69223E+02  -.30698E+02
   .15986E+01   .69025E+02  -.30698E+02
   .15987E+01   .69236E+02  -.32156E+02
   .15987E+01   .69451E+02  -.30697E+02
   .15987E+01   .69235E+02  -.30697E+02
   .15987E+01   .69379E+02  -.31978E+02
   .15988E+01   .69626E+02  -.30695E+02
   .15988E+01   .69663E+02  -.30695E+02
   .15988E+01   .69518E+02  -.30961E+02
   .15989E+01   .69495E+02  -.30694E+02
   .15994E+01   .69119E+02  -.30683E+02
   .15999E+01   .69085E+02  -.30673E+02
   .16005E+01   .69080E+02  -.30660E+02
   .16010E+01   .69086E+02  -.30650E+02
   .16025E+01   .69119E+02  -.30620E+02
   .16040E+01   .69159E+02  -.30590E+02
   .16055E+01   .69199E+02  -.30560E+02
   .16070E+01   .69238E+02  -.30529E+02
   .16090E+01   .69287E+02  -.30489E+02
   .16120E+01   .69357E+02  -.30429E+02
   .16150E+01   .69423E+02  -.30368E+02
   .16200E+01   .69525E+02  -.30267E+02
   .16280E+01   .69674E+02  -.30111E+02
   .16350E+01   .69794E+02  -.29975E+02
   .16500E+01   .70029E+02  -.29682E+02
   .16600E+01   .70173E+02  -.29493E+02
   .16700E+01   .70311E+02  -.29303E+02
   .17000E+01   .70689E+02  -.28753E+02
   .17200E+01   .70919E+02  -.28401E+02
   .17500E+01   .71235E+02  -.27872E+02
   .17800E+01   .71523E+02  -.27373E+02
   .18000E+01   .71704E+02  -.27041E+02
   .18200E+01   .71876E+02  -.26722E+02
   .18500E+01   .72113E+02  -.26243E+02
   .18700E+01   .72260E+02  -.25941E+02
   .19000E+01   .72470E+02  -.25489E+02
   .19200E+01   .72601E+02  -.25199E+02
   .19500E+01   .72784E+02  -.24764E+02
   .19700E+01   .72898E+02  -.24486E+02
   .20000E+01   .73059E+02  -.24069E+02
   .20300E+01   .73205E+02  -.23658E+02
   .20700E+01   .73372E+02  -.23130E+02
   .21100E+01   .73517E+02  -.22624E+02
   .21500E+01   .73644E+02  -.22138E+02
   .21800E+01   .73727E+02  -.21780E+02
   .22200E+01   .73819E+02  -.21319E+02
   .22600E+01   .73893E+02  -.20875E+02
   .23000E+01   .73953E+02  -.20449E+02
   .23500E+01   .74008E+02  -.19933E+02
   .24000E+01   .74041E+02  -.19440E+02
   .24500E+01   .74053E+02  -.18965E+02
   .25000E+01   .74045E+02  -.18510E+02
   .25300E+01   .74032E+02  -.18243E+02
   .25600E+01   .74009E+02  -.17983E+02
   .26210E+01   .73943E+02  -.17474E+02
   .26220E+01   .73941E+02  -.17466E+02
   .26230E+01   .73940E+02  -.17458E+02
   .26800E+01   .73854E+02  -.17003E+02
   .27100E+01   .73798E+02  -.16770E+02
   .27411E+01   .73731E+02  -.16535E+02
   .28100E+01   .73559E+02  -.16035E+02
   .28700E+01   .73377E+02  -.15617E+02
   .29300E+01   .73165E+02  -.15217E+02
   .29600E+01   .73047E+02  -.15023E+02
   .30000E+01   .72877E+02  -.14771E+02
   .30500E+01   .72641E+02  -.14463E+02
   .31000E+01   .72377E+02  -.14167E+02
   .31500E+01   .72083E+02  -.13881E+02
   .32000E+01   .71758E+02  -.13605E+02
   .32500E+01   .71395E+02  -.13337E+02
   .33000E+01   .70990E+02  -.13077E+02
   .33200E+01   .70814E+02  -.12977E+02
   .33500E+01   .70535E+02  -.12827E+02
   .33800E+01   .70237E+02  -.12682E+02
   .34000E+01   .70025E+02  -.12585E+02
   .34200E+01   .69803E+02  -.12489E+02
   .34500E+01   .69445E+02  -.12346E+02
   .34700E+01   .69189E+02  -.12253E+02
   .35000E+01   .68776E+02  -.12114E+02
   .35200E+01   .68479E+02  -.12025E+02
   .35500E+01   .67995E+02  -.11891E+02
   .35800E+01   .67460E+02  -.11761E+02
   .36000E+01   .67068E+02  -.11674E+02
   .36150E+01   .66754E+02  -.11611E+02
   .36300E+01   .66419E+02  -.11548E+02
   .36500E+01   .65935E+02  -.11463E+02
   .36700E+01   .65403E+02  -.11379E+02
   .36850E+01   .64965E+02  -.11319E+02
   .37000E+01   .64489E+02  -.11258E+02
   .37100E+01   .64147E+02  -.11218E+02
   .37200E+01   .63782E+02  -.11178E+02
   .37300E+01   .63390E+02  -.11137E+02
   .37400E+01   .62968E+02  -.11097E+02
   .37550E+01   .62268E+02  -.11039E+02
   .37630E+01   .61855E+02  -.11008E+02
   .37700E+01   .61466E+02  -.10981E+02
   .37800E+01   .60859E+02  -.10943E+02
   .37900E+01   .60177E+02  -.10904E+02
   .38000E+01   .59401E+02  -.10866E+02
   .38100E+01   .58500E+02  -.10827E+02
   .38150E+01   .57989E+02  -.10809E+02
   .38200E+01   .57428E+02  -.10790E+02
   .38250E+01   .56806E+02  -.10772E+02
   .38300E+01   .56109E+02  -.10753E+02
   .38350E+01   .55318E+02  -.10735E+02
   .38400E+01   .54405E+02  -.10716E+02
   .38450E+01   .53331E+02  -.10698E+02
   .38500E+01   .52034E+02  -.10679E+02
   .38550E+01   .50413E+02  -.10661E+02
   .38580E+01   .49215E+02  -.10650E+02
   .38600E+01   .48289E+02  -.10642E+02
   .38630E+01   .46639E+02  -.10631E+02
   .38650E+01   .45308E+02  -.10624E+02
   .38680E+01   .42807E+02  -.10613E+02
   .38700E+01   .40651E+02  -.10605E+02
   .38715E+01   .38653E+02  -.10600E+02
   .38730E+01   .36195E+02  -.10594E+02
   .38750E+01   .31838E+02  -.10587E+02
   .38770E+01   .25381E+02  -.10580E+02
   .38785E+01   .17942E+02  -.10574E+02
   .38800E+01   .58967E+01  -.10568E+02
   .38820E+01  -.31312E+02  -.10561E+02
   .38834E+01  -.23795E+03  -.10556E+02
   .38835E+01  -.10800E+03  -.45498E+03
   .38835E+01   .20792E+02  -.10555E+02
   .38841E+01  -.24983E+03  -.10553E+02
   .38844E+01  -.49877E+03  -.10552E+02
   .38847E+01  -.26131E+04  -.10551E+02
   .38847E+01  -.13208E+04  -.42811E+04
   .38848E+01   .60766E+02  -.85516E+04
   .38849E+01   .27346E+04  -.10551E+02
   .38858E+01   .26648E+03  -.10547E+02
   .38867E+01   .16354E+03  -.10544E+02
   .38877E+01   .12694E+03  -.10540E+02
   .38886E+01   .10769E+03  -.10537E+02
   .38887E+01   .10651E+03  -.10950E+02
   .38888E+01   .10532E+03  -.10536E+02
   .38889E+01   .10363E+03  -.10536E+02
   .38890E+01   .10123E+03  -.10536E+02
   .38891E+01   .10240E+03  -.17602E+02
   .38891E+01   .10361E+03  -.10535E+02
   .38897E+01   .95036E+02  -.10533E+02
   .38904E+01   .88764E+02  -.10531E+02
   .38904E+01   .88855E+02  -.12937E+02
   .38905E+01   .88918E+02  -.10530E+02
   .38907E+01   .87207E+02  -.10530E+02
   .38908E+01   .85531E+02  -.10529E+02
   .38909E+01   .85746E+02  -.13552E+02
   .38909E+01   .86041E+02  -.10529E+02
   .38910E+01   .85090E+02  -.10528E+02
   .38911E+01   .84079E+02  -.10528E+02
   .38911E+01   .83996E+02  -.12621E+02
   .38912E+01   .83739E+02  -.10528E+02
   .38912E+01   .83532E+02  -.10528E+02
   .38913E+01   .83134E+02  -.10528E+02
   .38913E+01   .83052E+02  -.12851E+02
   .38914E+01   .82910E+02  -.10527E+02
   .38914E+01   .82697E+02  -.10527E+02
   .38914E+01   .82365E+02  -.10527E+02
   .38915E+01   .82295E+02  -.12765E+02
   .38916E+01   .82381E+02  -.10526E+02
   .38917E+01   .81303E+02  -.10526E+02
   .38918E+01   .80496E+02  -.10526E+02
   .38919E+01   .79757E+02  -.10525E+02
   .38920E+01   .79022E+02  -.10525E+02
   .38921E+01   .78477E+02  -.10525E+02
   .38921E+01   .78073E+02  -.10524E+02
   .38921E+01   .77673E+02  -.10524E+02
   .38922E+01   .77389E+02  -.10670E+02
   .38922E+01   .77013E+02  -.10968E+02
   .38923E+01   .76778E+02  -.11272E+02
   .38923E+01   .76679E+02  -.11587E+02
   .38923E+01   .76601E+02  -.11770E+02
   .38924E+01   .76563E+02  -.11807E+02
   .38925E+01   .76412E+02  -.11844E+02
   .38925E+01   .76241E+02  -.11881E+02
   .38926E+01   .75875E+02  -.11956E+02
   .38927E+01   .75494E+02  -.12032E+02
   .38928E+01   .74921E+02  -.12146E+02
   .38930E+01   .74354E+02  -.12261E+02
   .38935E+01   .72565E+02  -.12652E+02
   .38940E+01   .70941E+02  -.13056E+02
   .38945E+01   .69474E+02  -.13481E+02
   .38950E+01   .68155E+02  -.13919E+02
   .38955E+01   .66968E+02  -.14364E+02
   .38960E+01   .65898E+02  -.14823E+02
   .38965E+01   .64936E+02  -.15285E+02
   .38970E+01   .64074E+02  -.15747E+02
   .38975E+01   .63298E+02  -.16214E+02
   .38980E+01   .62609E+02  -.16682E+02
   .38985E+01   .61996E+02  -.17142E+02
   .38990E+01   .61454E+02  -.17603E+02
   .38995E+01   .60978E+02  -.18050E+02
   .39000E+01   .60562E+02  -.18487E+02
   .39005E+01   .60201E+02  -.18912E+02
   .39010E+01   .59893E+02  -.19322E+02
   .39015E+01   .59639E+02  -.19715E+02
   .39020E+01   .59409E+02  -.20090E+02
   .39025E+01   .59234E+02  -.20447E+02
   .39030E+01   .59079E+02  -.20785E+02
   .39034E+01   .58986E+02  -.21040E+02
   .39038E+01   .58904E+02  -.21283E+02
   .39042E+01   .58842E+02  -.21513E+02
   .39045E+01   .58803E+02  -.21677E+02
   .39049E+01   .58766E+02  -.21885E+02
   .39053E+01   .58738E+02  -.22080E+02
   .39057E+01   .58719E+02  -.22264E+02
   .39060E+01   .58709E+02  -.22393E+02
   .39065E+01   .58703E+02  -.22596E+02
   .39070E+01   .58707E+02  -.22781E+02
   .39075E+01   .58722E+02  -.22950E+02
   .39080E+01   .58747E+02  -.23105E+02
   .39085E+01   .58766E+02  -.23245E+02
   .39090E+01   .58794E+02  -.23373E+02
   .39095E+01   .58830E+02  -.23489E+02
   .39100E+01   .58873E+02  -.23594E+02
   .39108E+01   .58924E+02  -.23742E+02
   .39115E+01   .58983E+02  -.23854E+02
   .39123E+01   .59036E+02  -.23964E+02
   .39130E+01   .59093E+02  -.24048E+02
   .39145E+01   .59198E+02  -.24195E+02
   .39160E+01   .59291E+02  -.24310E+02
   .39180E+01   .59402E+02  -.24431E+02
   .39200E+01   .59504E+02  -.24528E+02
   .39215E+01   .59577E+02  -.24590E+02
   .39230E+01   .59650E+02  -.24646E+02
   .39250E+01   .59748E+02  -.24713E+02
   .39280E+01   .59896E+02  -.24803E+02
   .39300E+01   .60000E+02  -.24846E+02
   .39330E+01   .60165E+02  -.24902E+02
   .39350E+01   .60277E+02  -.24925E+02
   .39380E+01   .60439E+02  -.24932E+02
   .39400E+01   .60547E+02  -.24929E+02
   .39440E+01   .60743E+02  -.24893E+02
   .39470E+01   .60873E+02  -.24851E+02
   .39510E+01   .61018E+02  -.24780E+02
   .39550E+01   .61134E+02  -.24704E+02
   .39590E+01   .61225E+02  -.24632E+02
   .39630E+01   .61294E+02  -.24560E+02
   .39670E+01   .61346E+02  -.24501E+02
   .39700E+01   .61377E+02  -.24457E+02
   .39760E+01   .61427E+02  -.24388E+02
   .39820E+01   .61458E+02  -.24323E+02
   .39880E+01   .61474E+02  -.24257E+02
   .39933E+01   .61466E+02  -.24199E+02
   .39950E+01   .61460E+02  -.24180E+02
   .39970E+01   .61450E+02  -.24158E+02
   .39985E+01   .61440E+02  -.24141E+02
   .40000E+01   .61430E+02  -.24124E+02
   .40050E+01   .61378E+02  -.24071E+02
   .40100E+01   .61299E+02  -.24018E+02
   .40150E+01   .61192E+02  -.23965E+02
   .40200E+01   .61050E+02  -.23912E+02
   .40250E+01   .60876E+02  -.23859E+02
   .40300E+01   .60668E+02  -.23806E+02
   .40350E+01   .60417E+02  -.23753E+02
   .40400E+01   .60112E+02  -.23700E+02
   .40450E+01   .59741E+02  -.23647E+02
   .40500E+01   .59284E+02  -.23594E+02
   .40550E+01   .58716E+02  -.23541E+02
   .40600E+01   .57997E+02  -.23487E+02
   .40640E+01   .57269E+02  -.23445E+02
   .40670E+01   .56598E+02  -.23413E+02
   .40700E+01   .55782E+02  -.23381E+02
   .40730E+01   .54764E+02  -.23350E+02
   .40770E+01   .52932E+02  -.23307E+02
   .40800E+01   .50975E+02  -.23275E+02
   .40830E+01   .48120E+02  -.23243E+02
   .40860E+01   .43501E+02  -.23212E+02
   .40870E+01   .41234E+02  -.23202E+02
   .40880E+01   .38350E+02  -.23193E+02
   .40900E+01   .29282E+02  -.23174E+02
   .40920E+01   .86870E+01  -.23154E+02
   .40950E+01  -.17802E+04  -.23126E+02
   .40950E+01  -.86028E+03  -.30180E+04
   .40951E+01   .59632E+02  -.60128E+04
   .40951E+01   .18995E+04  -.23125E+02
   .40963E+01   .18787E+03  -.23114E+02
   .40974E+01   .12576E+03  -.23103E+02
   .40986E+01   .10347E+03  -.23092E+02
   .40997E+01   .91850E+02  -.23081E+02
   .40998E+01   .91258E+02  -.23378E+02
   .40999E+01   .90652E+02  -.23080E+02
   .41000E+01   .89126E+02  -.23078E+02
   .41002E+01   .86310E+02  -.23077E+02
   .41003E+01   .88632E+02  -.32333E+02
   .41003E+01   .90965E+02  -.23075E+02
   .41005E+01   .88512E+02  -.23074E+02
   .41006E+01   .87294E+02  -.23073E+02
   .41007E+01   .86881E+02  -.23656E+02
   .41008E+01   .86525E+02  -.23071E+02
   .41013E+01   .83381E+02  -.23066E+02
   .41019E+01   .80142E+02  -.23061E+02
   .41019E+01   .80655E+02  -.25864E+02
   .41020E+01   .81167E+02  -.23059E+02
   .41022E+01   .79728E+02  -.23058E+02
   .41024E+01   .78406E+02  -.23056E+02
   .41025E+01   .78667E+02  -.25152E+02
   .41026E+01   .78932E+02  -.23054E+02
   .41026E+01   .78180E+02  -.23054E+02
   .41027E+01   .77452E+02  -.23053E+02
   .41028E+01   .77576E+02  -.24893E+02
   .41029E+01   .77669E+02  -.23051E+02
   .41029E+01   .77416E+02  -.23051E+02
   .41029E+01   .77171E+02  -.23051E+02
   .41030E+01   .77021E+02  -.24339E+02
   .41031E+01   .76906E+02  -.23049E+02
   .41031E+01   .76911E+02  -.23049E+02
   .41031E+01   .76946E+02  -.23049E+02
   .41032E+01   .76594E+02  -.23800E+02
   .41032E+01   .76249E+02  -.23212E+02
   .41033E+01   .75771E+02  -.23556E+02
   .41034E+01   .75604E+02  -.23821E+02
   .41034E+01   .75543E+02  -.23842E+02
   .41035E+01   .75452E+02  -.23862E+02
   .41035E+01   .75337E+02  -.23882E+02
   .41036E+01   .75217E+02  -.23902E+02
   .41037E+01   .75049E+02  -.23931E+02
   .41038E+01   .74855E+02  -.23963E+02
   .41039E+01   .74495E+02  -.24024E+02
   .41042E+01   .73794E+02  -.24155E+02
   .41046E+01   .72925E+02  -.24336E+02
   .41053E+01   .71555E+02  -.24676E+02
   .41060E+01   .70359E+02  -.25042E+02
   .41065E+01   .69603E+02  -.25319E+02
   .41070E+01   .68919E+02  -.25600E+02
   .41080E+01   .67740E+02  -.26188E+02
   .41090E+01   .66787E+02  -.26790E+02
   .41100E+01   .66031E+02  -.27394E+02
   .41110E+01   .65449E+02  -.27981E+02
   .41120E+01   .65013E+02  -.28539E+02
   .41130E+01   .64700E+02  -.29058E+02
   .41140E+01   .64497E+02  -.29529E+02
   .41150E+01   .64377E+02  -.29947E+02
   .41160E+01   .64314E+02  -.30313E+02
   .41170E+01   .64303E+02  -.30626E+02
   .41180E+01   .64322E+02  -.30891E+02
   .41190E+01   .64362E+02  -.31113E+02
   .41200E+01   .64425E+02  -.31298E+02
   .41210E+01   .64492E+02  -.31451E+02
   .41220E+01   .64565E+02  -.31578E+02
   .41235E+01   .64673E+02  -.31728E+02
   .41250E+01   .64780E+02  -.31841E+02
   .41265E+01   .64883E+02  -.31930E+02
   .41280E+01   .64982E+02  -.32000E+02
   .41300E+01   .65107E+02  -.32075E+02
   .41330E+01   .65288E+02  -.32164E+02
   .41350E+01   .65412E+02  -.32211E+02
   .41380E+01   .65595E+02  -.32264E+02
   .41400E+01   .65723E+02  -.32299E+02
   .41420E+01   .65854E+02  -.32316E+02
   .41450E+01   .66051E+02  -.32341E+02
   .41480E+01   .66249E+02  -.32336E+02
   .41500E+01   .66381E+02  -.32333E+02
   .41530E+01   .66571E+02  -.32304E+02
   .41550E+01   .66694E+02  -.32285E+02
   .41580E+01   .66870E+02  -.32241E+02
   .41600E+01   .66981E+02  -.32211E+02
   .41650E+01   .67240E+02  -.32124E+02
   .41700E+01   .67473E+02  -.32038E+02
   .41750E+01   .67690E+02  -.31960E+02
   .41800E+01   .67894E+02  -.31883E+02
   .41840E+01   .68051E+02  -.31832E+02
   .41880E+01   .68207E+02  -.31782E+02
   .41950E+01   .68476E+02  -.31693E+02
   .42030E+01   .68772E+02  -.31590E+02
   .42100E+01   .69020E+02  -.31499E+02
   .42200E+01   .69358E+02  -.31367E+02
   .42300E+01   .69674E+02  -.31235E+02
   .42400E+01   .69972E+02  -.31103E+02
   .42500E+01   .70248E+02  -.30971E+02
   .42580E+01   .70459E+02  -.30878E+02
   .42650E+01   .70640E+02  -.30797E+02
   .42800E+01   .71012E+02  -.30623E+02
   .42900E+01   .71248E+02  -.30508E+02
   .43000E+01   .71474E+02  -.30394E+02
   .43100E+01   .71690E+02  -.30279E+02
   .43200E+01   .71897E+02  -.30165E+02
   .43300E+01   .72093E+02  -.30057E+02
   .43400E+01   .72281E+02  -.29949E+02
   .43600E+01   .72637E+02  -.29733E+02
   .43750E+01   .72885E+02  -.29570E+02
   .43900E+01   .73118E+02  -.29408E+02
   .44100E+01   .73405E+02  -.29201E+02
   .44300E+01   .73665E+02  -.28994E+02
   .44450E+01   .73842E+02  -.28839E+02
   .44600E+01   .74005E+02  -.28683E+02
   .44750E+01   .74152E+02  -.28534E+02
   .44900E+01   .74282E+02  -.28385E+02
   .45100E+01   .74429E+02  -.28186E+02
   .45300E+01   .74542E+02  -.27987E+02
   .45450E+01   .74602E+02  -.27843E+02
   .45600E+01   .74634E+02  -.27698E+02
   .45700E+01   .74639E+02  -.27602E+02
   .45800E+01   .74627E+02  -.27506E+02
   .45900E+01   .74596E+02  -.27410E+02
   .46000E+01   .74542E+02  -.27314E+02
   .46100E+01   .74457E+02  -.27221E+02
   .46200E+01   .74334E+02  -.27129E+02
   .46250E+01   .74253E+02  -.27083E+02
   .46300E+01   .74156E+02  -.27036E+02
   .46350E+01   .74040E+02  -.26990E+02
   .46400E+01   .73898E+02  -.26944E+02
   .46450E+01   .73725E+02  -.26898E+02
   .46500E+01   .73507E+02  -.26852E+02
   .46530E+01   .73348E+02  -.26824E+02
   .46550E+01   .73227E+02  -.26806E+02
   .46580E+01   .73017E+02  -.26778E+02
   .46600E+01   .72852E+02  -.26759E+02
   .46620E+01   .72663E+02  -.26741E+02
   .46640E+01   .72441E+02  -.26722E+02
   .46660E+01   .72178E+02  -.26704E+02
   .46680E+01   .71857E+02  -.26685E+02
   .46700E+01   .71454E+02  -.26667E+02
   .46720E+01   .70923E+02  -.26648E+02
   .46730E+01   .70584E+02  -.26639E+02
   .46740E+01   .70169E+02  -.26630E+02
   .46754E+01   .69376E+02  -.26617E+02
   .46768E+01   .66908E+02  -.26604E+02
   .46769E+01   .68124E+02  -.30988E+02
   .46770E+01   .69332E+02  -.26602E+02
   .46776E+01   .67119E+02  -.26597E+02
   .46782E+01   .59650E+02  -.26592E+02
   .46782E+01   .67361E+02  -.52483E+02
   .46783E+01   .75068E+02  -.26590E+02
   .46791E+01   .66713E+02  -.26583E+02
   .46799E+01   .63738E+02  -.26576E+02
   .46804E+01   .61285E+02  -.26572E+02
   .46808E+01   .57839E+02  -.26568E+02
   .46812E+01   .51001E+02  -.26564E+02
   .46816E+01   .24972E+02  -.26561E+02
   .46817E+01   .43186E+02  -.99873E+02
   .46817E+01   .59808E+02  -.26559E+02
   .46819E+01   .25631E+02  -.26558E+02
   .46821E+01  -.67919E+02  -.26556E+02
   .46822E+01   .73338E+02  -.49653E+03
   .46823E+01   .21483E+03  -.26555E+02
   .46827E+01   .98466E+02  -.26551E+02
   .46831E+01   .81339E+02  -.26547E+02
   .46832E+01   .82292E+02  -.35944E+02
   .46833E+01   .83378E+02  -.26545E+02
   .46835E+01   .76458E+02  -.26543E+02
   .46838E+01   .62139E+02  -.26541E+02
   .46839E+01   .77550E+02  -.77515E+02
   .46839E+01   .91764E+02  -.26539E+02
   .46840E+01   .86543E+02  -.26539E+02
   .46840E+01   .83154E+02  -.26539E+02
   .46841E+01   .79843E+02  -.29950E+02
   .46842E+01   .77475E+02  -.26537E+02
   .46843E+01   .74920E+02  -.26537E+02
   .46843E+01   .72053E+02  -.26536E+02
   .46844E+01   .76976E+02  -.48521E+02
   .46845E+01   .81595E+02  -.26535E+02
   .46845E+01   .78586E+02  -.26534E+02
   .46846E+01   .76380E+02  -.26534E+02
   .46846E+01   .76742E+02  -.37834E+02
   .46848E+01   .76498E+02  -.26532E+02
   .46848E+01   .76341E+02  -.33359E+02
   .46849E+01   .77097E+02  -.40186E+02
   .46849E+01   .77719E+02  -.34117E+02
   .46849E+01   .78348E+02  -.26531E+02
   .46850E+01   .76946E+02  -.35041E+02
   .46851E+01   .76694E+02  -.27971E+02
   .46852E+01   .74817E+02  -.29733E+02
   .46853E+01   .74707E+02  -.31786E+02
   .46853E+01   .75206E+02  -.32068E+02
   .46854E+01   .75698E+02  -.32036E+02
   .46855E+01   .75770E+02  -.32013E+02
   .46855E+01   .75807E+02  -.31991E+02
   .46856E+01   .75829E+02  -.31968E+02
   .46856E+01   .75838E+02  -.31945E+02
   .46856E+01   .75838E+02  -.31925E+02
   .46857E+01   .75832E+02  -.31904E+02
   .46858E+01   .75822E+02  -.31883E+02
   .46858E+01   .75810E+02  -.31862E+02
   .46859E+01   .75790E+02  -.31836E+02
   .46859E+01   .75766E+02  -.31806E+02
   .46860E+01   .75743E+02  -.31780E+02
   .46861E+01   .75713E+02  -.31750E+02
   .46862E+01   .75675E+02  -.31720E+02
   .46863E+01   .75640E+02  -.31689E+02
   .46865E+01   .75589E+02  -.31643E+02
   .46866E+01   .75536E+02  -.31597E+02
   .46867E+01   .75501E+02  -.31572E+02
   .46868E+01   .75469E+02  -.31546E+02
   .46870E+01   .75406E+02  -.31496E+02
   .46873E+01   .75320E+02  -.31433E+02
   .46875E+01   .75267E+02  -.31391E+02
   .46877E+01   .75216E+02  -.31356E+02
   .46880E+01   .75148E+02  -.31305E+02
   .46882E+01   .75106E+02  -.31279E+02
   .46885E+01   .75053E+02  -.31240E+02
   .46890E+01   .74974E+02  -.31175E+02
   .46895E+01   .74905E+02  -.31131E+02
   .46900E+01   .74851E+02  -.31086E+02
   .46905E+01   .74804E+02  -.31055E+02
   .46910E+01   .74767E+02  -.31024E+02
   .46920E+01   .74713E+02  -.30982E+02
   .46930E+01   .74680E+02  -.30953E+02
   .46940E+01   .74668E+02  -.30936E+02
   .46950E+01   .74670E+02  -.30920E+02
   .46960E+01   .74681E+02  -.30911E+02
   .46970E+01   .74702E+02  -.30902E+02
   .46985E+01   .74746E+02  -.30893E+02
   .47000E+01   .74802E+02  -.30883E+02
   .47030E+01   .74926E+02  -.30850E+02
   .47050E+01   .75011E+02  -.30827E+02
   .47080E+01   .75139E+02  -.30793E+02
   .47100E+01   .75226E+02  -.30771E+02
   .47130E+01   .75352E+02  -.30726E+02
   .47150E+01   .75429E+02  -.30697E+02
   .47170E+01   .75502E+02  -.30667E+02
   .47200E+01   .75605E+02  -.30622E+02
   .47250E+01   .75767E+02  -.30565E+02
   .47300E+01   .75918E+02  -.30508E+02
   .47350E+01   .76063E+02  -.30466E+02
   .47400E+01   .76206E+02  -.30423E+02
   .47500E+01   .76482E+02  -.30339E+02
   .47600E+01   .76744E+02  -.30255E+02
   .47700E+01   .76990E+02  -.30163E+02
   .47800E+01   .77219E+02  -.30071E+02
   .47900E+01   .77435E+02  -.29978E+02
   .48000E+01   .77638E+02  -.29886E+02
   .48100E+01   .77832E+02  -.29796E+02
   .48200E+01   .78018E+02  -.29707E+02
   .48300E+01   .78197E+02  -.29617E+02
   .48400E+01   .78369E+02  -.29527E+02
   .48600E+01   .78696E+02  -.29350E+02
   .48800E+01   .79000E+02  -.29174E+02
   .49000E+01   .79285E+02  -.28997E+02
   .49200E+01   .79555E+02  -.28819E+02
   .49400E+01   .79812E+02  -.28648E+02
   .49600E+01   .80055E+02  -.28477E+02
   .49800E+01   .80287E+02  -.28306E+02
   .50000E+01   .80511E+02  -.28135E+02
   .50200E+01   .80724E+02  -.27968E+02
   .50500E+01   .81024E+02  -.27717E+02
   .50800E+01   .81304E+02  -.27466E+02
   .51100E+01   .81568E+02  -.27216E+02
   .51300E+01   .81734E+02  -.27057E+02
   .51600E+01   .81971E+02  -.26819E+02
   .51900E+01   .82195E+02  -.26581E+02
   .52104E+01   .82338E+02  -.26420E+02
   .52400E+01   .82538E+02  -.26196E+02
   .52600E+01   .82665E+02  -.26045E+02
   .52800E+01   .82788E+02  -.25893E+02
   .53100E+01   .82962E+02  -.25667E+02
   .53300E+01   .83072E+02  -.25521E+02
   .53600E+01   .83228E+02  -.25302E+02
   .53900E+01   .83373E+02  -.25088E+02
   .54147E+01   .83486E+02  -.24912E+02
   .54400E+01   .83591E+02  -.24736E+02
   .54600E+01   .83668E+02  -.24597E+02
   .54800E+01   .83739E+02  -.24458E+02
   .55100E+01   .83834E+02  -.24250E+02
   .55300E+01   .83889E+02  -.24117E+02
   .55500E+01   .83937E+02  -.23984E+02
   .55700E+01   .83976E+02  -.23851E+02
   .56000E+01   .84014E+02  -.23651E+02
   .56150E+01   .84022E+02  -.23555E+02
   .56300E+01   .84021E+02  -.23458E+02
   .56400E+01   .84013E+02  -.23394E+02
   .56500E+01   .83999E+02  -.23330E+02
   .56600E+01   .83977E+02  -.23266E+02
   .56700E+01   .83944E+02  -.23201E+02
   .56780E+01   .83909E+02  -.23152E+02
   .56850E+01   .83868E+02  -.23108E+02
   .56930E+01   .83807E+02  -.23058E+02
   .57000E+01   .83735E+02  -.23015E+02
   .57050E+01   .83670E+02  -.22984E+02
   .57100E+01   .83586E+02  -.22952E+02
   .57150E+01   .83479E+02  -.22921E+02
   .57200E+01   .83326E+02  -.22890E+02
   .57220E+01   .83248E+02  -.22878E+02
   .57240E+01   .83154E+02  -.22865E+02
   .57260E+01   .83038E+02  -.22853E+02
   .57280E+01   .82891E+02  -.22840E+02
   .57300E+01   .82693E+02  -.22828E+02
   .57320E+01   .82399E+02  -.22816E+02
   .57340E+01   .81842E+02  -.22803E+02
   .57356E+01   .76152E+02  -.22793E+02
   .57357E+01   .81767E+02  -.41225E+02
   .57358E+01   .87381E+02  -.22792E+02
   .57369E+01   .81768E+02  -.22785E+02
   .57375E+01   .81146E+02  -.22781E+02
   .57381E+01   .80460E+02  -.22778E+02
   .57386E+01   .79553E+02  -.22775E+02
   .57392E+01   .77726E+02  -.22771E+02
   .57398E+01   .72731E+02  -.22767E+02
   .57403E+01   .29310E+02  -.22764E+02
   .57404E+01   .82489E+02  -.19603E+03
   .57406E+01   .13566E+03  -.22763E+02
   .57409E+01   .96155E+02  -.22761E+02
   .57412E+01   .90362E+02  -.22759E+02
   .57414E+01   .88967E+02  -.22758E+02
   .57415E+01   .87816E+02  -.22757E+02
   .57417E+01   .86548E+02  -.22756E+02
   .57419E+01   .85411E+02  -.22755E+02
   .57419E+01   .85417E+02  -.23750E+02
   .57420E+01   .85465E+02  -.24745E+02
   .57421E+01   .85502E+02  -.22753E+02
   .57422E+01   .84680E+02  -.22753E+02
   .57423E+01   .83908E+02  -.22752E+02
   .57424E+01   .82972E+02  -.22751E+02
   .57425E+01   .80855E+02  -.22751E+02
   .57425E+01   .82070E+02  -.22750E+02
   .57426E+01   .83543E+02  -.34150E+02
   .57427E+01   .86504E+02  -.23765E+02
   .57428E+01   .85811E+02  -.23981E+02
   .57428E+01   .85339E+02  -.24199E+02
   .57429E+01   .84686E+02  -.25014E+02
   .57430E+01   .84018E+02  -.24282E+02
   .57430E+01   .83900E+02  -.24281E+02
   .57431E+01   .83598E+02  -.24279E+02
   .57431E+01   .84105E+02  -.26730E+02
   .57432E+01   .84720E+02  -.29181E+02
   .57432E+01   .85320E+02  -.26723E+02
   .57433E+01   .85732E+02  -.24264E+02
   .57434E+01   .84988E+02  -.24261E+02
   .57434E+01   .84241E+02  -.24257E+02
   .57435E+01   .85263E+02  -.29160E+02
   .57436E+01   .86299E+02  -.24242E+02
   .57436E+01   .86127E+02  -.24241E+02
   .57437E+01   .85850E+02  -.24240E+02
   .57438E+01   .85890E+02  -.26463E+02
   .57439E+01   .86269E+02  -.24225E+02
   .57441E+01   .85641E+02  -.24219E+02
   .57442E+01   .85371E+02  -.24213E+02
   .57444E+01   .85156E+02  -.24205E+02
   .57446E+01   .85011E+02  -.24197E+02
   .57448E+01   .84901E+02  -.24189E+02
   .57450E+01   .84813E+02  -.24181E+02
   .57454E+01   .84679E+02  -.24165E+02
   .57458E+01   .84580E+02  -.24156E+02
   .57462E+01   .84502E+02  -.24146E+02
   .57466E+01   .84439E+02  -.24137E+02
   .57470E+01   .84387E+02  -.24127E+02
   .57478E+01   .84309E+02  -.24118E+02
   .57485E+01   .84260E+02  -.24110E+02
   .57493E+01   .84215E+02  -.24104E+02
   .57500E+01   .84188E+02  -.24099E+02
   .57520E+01   .84141E+02  -.24091E+02
   .57540E+01   .84125E+02  -.24084E+02
   .57555E+01   .84126E+02  -.24079E+02
   .57570E+01   .84133E+02  -.24074E+02
   .57610E+01   .84170E+02  -.24050E+02
   .57640E+01   .84202E+02  -.24032E+02
   .57670E+01   .84234E+02  -.24010E+02
   .57700E+01   .84267E+02  -.23989E+02
   .57730E+01   .84298E+02  -.23967E+02
   .57750E+01   .84319E+02  -.23952E+02
   .57800E+01   .84366E+02  -.23915E+02
   .57850E+01   .84410E+02  -.23885E+02
   .57900E+01   .84454E+02  -.23856E+02
   .58000E+01   .84539E+02  -.23799E+02
   .58100E+01   .84621E+02  -.23742E+02
   .58180E+01   .84684E+02  -.23694E+02
   .58250E+01   .84735E+02  -.23652E+02
   .58320E+01   .84784E+02  -.23610E+02
   .58400E+01   .84836E+02  -.23562E+02
   .58500E+01   .84898E+02  -.23504E+02
   .58600E+01   .84958E+02  -.23447E+02
   .58800E+01   .85067E+02  -.23331E+02
   .59000E+01   .85166E+02  -.23217E+02
   .59269E+01   .85284E+02  -.23062E+02
   .59400E+01   .85334E+02  -.22989E+02
   .59600E+01   .85404E+02  -.22876E+02
   .59800E+01   .85465E+02  -.22766E+02
   .60000E+01   .85515E+02  -.22655E+02
   .60100E+01   .85535E+02  -.22601E+02
   .60200E+01   .85550E+02  -.22546E+02
   .60350E+01   .85563E+02  -.22464E+02
   .60430E+01   .85565E+02  -.22420E+02
   .60500E+01   .85561E+02  -.22382E+02
   .60570E+01   .85553E+02  -.22343E+02
   .60650E+01   .85536E+02  -.22299E+02
   .60720E+01   .85512E+02  -.22261E+02
   .60760E+01   .85493E+02  -.22239E+02
   .60800E+01   .85468E+02  -.22217E+02
   .60840E+01   .85438E+02  -.22195E+02
   .60880E+01   .85398E+02  -.22174E+02
   .60920E+01   .85347E+02  -.22152E+02
   .60950E+01   .85296E+02  -.22135E+02
   .60970E+01   .85253E+02  -.22124E+02
   .60990E+01   .85201E+02  -.22113E+02
   .61005E+01   .85153E+02  -.22105E+02
   .61020E+01   .85095E+02  -.22097E+02
   .61030E+01   .85047E+02  -.22091E+02
   .61040E+01   .84991E+02  -.22086E+02
   .61050E+01   .84921E+02  -.22080E+02
   .61060E+01   .84831E+02  -.22075E+02
   .61070E+01   .84709E+02  -.22069E+02
   .61080E+01   .84524E+02  -.22064E+02
   .61085E+01   .84384E+02  -.22061E+02
   .61090E+01   .84175E+02  -.22059E+02
   .61095E+01   .83806E+02  -.22056E+02
   .61100E+01   .82747E+02  -.22053E+02
   .61100E+01   .82821E+02  -.22819E+02
   .61101E+01   .82856E+02  -.23584E+02
   .61102E+01   .82737E+02  -.22052E+02
   .61103E+01   .81478E+02  -.22051E+02
   .61104E+01   .78981E+02  -.22051E+02
   .61105E+01   .84138E+02  -.39107E+02
   .61107E+01   .89108E+02  -.22049E+02
   .61108E+01   .86620E+02  -.22049E+02
   .61108E+01   .84779E+02  -.22049E+02
   .61110E+01   .86027E+02  -.28414E+02
   .61111E+01   .87570E+02  -.22047E+02
   .61112E+01   .86402E+02  -.22047E+02
   .61113E+01   .85825E+02  -.22046E+02
   .61115E+01   .85331E+02  -.22045E+02
   .61116E+01   .84949E+02  -.22045E+02
   .61117E+01   .84754E+02  -.22044E+02
   .61118E+01   .84575E+02  -.22044E+02
   .61118E+01   .84377E+02  -.22043E+02
   .61119E+01   .84105E+02  -.22043E+02
   .61119E+01   .83891E+02  -.22043E+02
   .61120E+01   .83554E+02  -.22042E+02
   .61121E+01   .82360E+02  -.22042E+02
   .61122E+01   .82775E+02  -.22042E+02
   .61122E+01   .83198E+02  -.22041E+02
   .61122E+01   .84045E+02  -.28801E+02
   .61124E+01   .85824E+02  -.22561E+02
   .61124E+01   .85111E+02  -.22857E+02
   .61125E+01   .84766E+02  -.23017E+02
   .61126E+01   .84647E+02  -.23017E+02
   .61126E+01   .84537E+02  -.23016E+02
   .61127E+01   .84095E+02  -.23016E+02
   .61127E+01   .84476E+02  -.24469E+02
   .61128E+01   .84850E+02  -.25922E+02
   .61129E+01   .85528E+02  -.23014E+02
   .61130E+01   .85228E+02  -.23014E+02
   .61130E+01   .84882E+02  -.23014E+02
   .61131E+01   .85278E+02  -.25344E+02
   .61132E+01   .85682E+02  -.23013E+02
   .61134E+01   .85747E+02  -.24560E+02
   .61135E+01   .86067E+02  -.23011E+02
   .61138E+01   .85566E+02  -.23010E+02
   .61141E+01   .85446E+02  -.23008E+02
   .61144E+01   .85391E+02  -.23007E+02
   .61147E+01   .85363E+02  -.23005E+02
   .61150E+01   .85347E+02  -.23003E+02
   .61154E+01   .85338E+02  -.23001E+02
   .61160E+01   .85337E+02  -.22998E+02
   .61165E+01   .85342E+02  -.22995E+02
   .61170E+01   .85350E+02  -.22993E+02
   .61180E+01   .85371E+02  -.22987E+02
   .61190E+01   .85394E+02  -.22982E+02
   .61200E+01   .85418E+02  -.22977E+02
   .61210E+01   .85442E+02  -.22971E+02
   .61220E+01   .85465E+02  -.22966E+02
   .61240E+01   .85509E+02  -.22955E+02
   .61260E+01   .85550E+02  -.22945E+02
   .61280E+01   .85588E+02  -.22934E+02
   .61300E+01   .85624E+02  -.22923E+02
   .61320E+01   .85658E+02  -.22913E+02
   .61350E+01   .85705E+02  -.22897E+02
   .61400E+01   .85776E+02  -.22870E+02
   .61450E+01   .85840E+02  -.22843E+02
   .61500E+01   .85899E+02  -.22817E+02
   .61550E+01   .85953E+02  -.22790E+02
   .61600E+01   .86004E+02  -.22763E+02
   .61700E+01   .86096E+02  -.22710E+02
   .61800E+01   .86180E+02  -.22657E+02
   .61900E+01   .86258E+02  -.22604E+02
   .61980E+01   .86317E+02  -.22561E+02
   .62050E+01   .86366E+02  -.22524E+02
   .62200E+01   .86464E+02  -.22444E+02
   .62400E+01   .86586E+02  -.22337E+02
   .62600E+01   .86699E+02  -.22230E+02
   .62750E+01   .86778E+02  -.22154E+02
   .62900E+01   .86854E+02  -.22077E+02
   .63100E+01   .86951E+02  -.21975E+02
   .63300E+01   .87044E+02  -.21873E+02
   .63500E+01   .87134E+02  -.21773E+02
   .63700E+01   .87217E+02  -.21674E+02
   .63900E+01   .87298E+02  -.21575E+02
   .64038E+01   .87353E+02  -.21506E+02
   .64400E+01   .87490E+02  -.21334E+02
   .64800E+01   .87633E+02  -.21143E+02
   .65100E+01   .87734E+02  -.21000E+02
   .65500E+01   .87864E+02  -.20810E+02
   .65900E+01   .87986E+02  -.20629E+02
   .66300E+01   .88103E+02  -.20449E+02
   .66600E+01   .88187E+02  -.20314E+02
   .67000E+01   .88294E+02  -.20134E+02
   .67400E+01   .88396E+02  -.19963E+02
   .67800E+01   .88495E+02  -.19793E+02
   .68100E+01   .88565E+02  -.19665E+02
   .68500E+01   .88657E+02  -.19494E+02
   .68800E+01   .88723E+02  -.19371E+02
   .69200E+01   .88808E+02  -.19207E+02
   .69600E+01   .88890E+02  -.19048E+02
   .70000E+01   .88969E+02  -.18888E+02
   .70300E+01   .89027E+02  -.18772E+02
   .70700E+01   .89100E+02  -.18618E+02
   .71100E+01   .89171E+02  -.18464E+02
   .71500E+01   .89239E+02  -.18310E+02
   .72200E+01   .89353E+02  -.18053E+02
   .73000E+01   .89474E+02  -.17760E+02
   .73500E+01   .89545E+02  -.17585E+02
   .74000E+01   .89613E+02  -.17409E+02
   .74500E+01   .89678E+02  -.17240E+02
   .75000E+01   .89741E+02  -.17070E+02
   .75700E+01   .89824E+02  -.16841E+02
   .76500E+01   .89913E+02  -.16579E+02
   .77200E+01   .89986E+02  -.16361E+02
   .78000E+01   .90065E+02  -.16112E+02
   .78500E+01   .90112E+02  -.15962E+02
   .79000E+01   .90156E+02  -.15812E+02
   .80000E+01   .90241E+02  -.15521E+02
   .80200E+01   .90258E+02  -.15463E+02
   .80340E+01   .90269E+02  -.15422E+02
   .80478E+01   .90280E+02  -.15383E+02
   .81100E+01   .90326E+02  -.15208E+02
   .81700E+01   .90368E+02  -.15039E+02
   .82400E+01   .90415E+02  -.14850E+02
   .83000E+01   .90453E+02  -.14688E+02
   .83500E+01   .90483E+02  -.14555E+02
   .84000E+01   .90511E+02  -.14423E+02
   .84500E+01   .90537E+02  -.14295E+02
   .85000E+01   .90561E+02  -.14166E+02
   .85700E+01   .90592E+02  -.13993E+02
   .86500E+01   .90626E+02  -.13796E+02
   .87200E+01   .90652E+02  -.13631E+02
   .88000E+01   .90680E+02  -.13442E+02
   .88500E+01   .90696E+02  -.13328E+02
   .89000E+01   .90711E+02  -.13214E+02
   .90000E+01   .90737E+02  -.12993E+02
   .91500E+01   .90770E+02  -.12675E+02
   .93000E+01   .90799E+02  -.12371E+02
   .94000E+01   .90814E+02  -.12174E+02
   .95000E+01   .90828E+02  -.11983E+02
   .96500E+01   .90845E+02  -.11705E+02
   .98000E+01   .90857E+02  -.11438E+02
   .99000E+01   .90864E+02  -.11265E+02
   .10000E+02   .90870E+02  -.11095E+02
   .10070E+02   .90874E+02  -.10978E+02
   .10150E+02   .90875E+02  -.10844E+02
   .10220E+02   .90874E+02  -.10731E+02
   .10300E+02   .90872E+02  -.10601E+02
   .10450E+02   .90865E+02  -.10367E+02
   .10600E+02   .90853E+02  -.10142E+02
   .10750E+02   .90838E+02  -.99247E+01
   .10900E+02   .90820E+02  -.97148E+01
   .11100E+02   .90791E+02  -.94462E+01
   .11220E+02   .90771E+02  -.92909E+01
   .11360E+02   .90746E+02  -.91149E+01
   .11500E+02   .90719E+02  -.89444E+01
   .11650E+02   .90687E+02  -.87682E+01
   .11800E+02   .90654E+02  -.85977E+01
   .11950E+02   .90619E+02  -.84325E+01
   .12100E+02   .90583E+02  -.82726E+01
   .12210E+02   .90555E+02  -.81584E+01
   .12315E+02   .90528E+02  -.80516E+01
   .12500E+02   .90478E+02  -.78673E+01
   .12700E+02   .90420E+02  -.76756E+01
   .12850E+02   .90375E+02  -.75368E+01
   .13000E+02   .90327E+02  -.74021E+01
   .13150E+02   .90278E+02  -.72702E+01
   .13300E+02   .90227E+02  -.71422E+01
   .13500E+02   .90155E+02  -.69771E+01
   .13700E+02   .90080E+02  -.68180E+01
   .13850E+02   .90021E+02  -.67025E+01
   .14000E+02   .89960E+02  -.65901E+01
   .14150E+02   .89896E+02  -.64812E+01
   .14300E+02   .89831E+02  -.63752E+01
   .14500E+02   .89740E+02  -.62382E+01
   .14700E+02   .89645E+02  -.61060E+01
   .14850E+02   .89570E+02  -.60098E+01
   .15000E+02   .89493E+02  -.59161E+01
   .15150E+02   .89413E+02  -.58251E+01
   .15300E+02   .89329E+02  -.57341E+01
   .15450E+02   .89241E+02  -.56476E+01
   .15600E+02   .89149E+02  -.55612E+01
   .15750E+02   .89053E+02  -.54789E+01
   .15900E+02   .88951E+02  -.53966E+01
   .16050E+02   .88844E+02  -.53179E+01
   .16200E+02   .88731E+02  -.52391E+01
   .16350E+02   .88610E+02  -.51639E+01
   .16500E+02   .88481E+02  -.50888E+01
   .16650E+02   .88342E+02  -.50170E+01
   .16730E+02   .88264E+02  -.49788E+01
   .16800E+02   .88193E+02  -.49453E+01
   .16880E+02   .88107E+02  -.49087E+01
   .16950E+02   .88030E+02  -.48767E+01
   .17020E+02   .87949E+02  -.48448E+01
   .17100E+02   .87851E+02  -.48082E+01
   .17200E+02   .87721E+02  -.47648E+01
   .17300E+02   .87581E+02  -.47213E+01
   .17390E+02   .87446E+02  -.46822E+01
   .17479E+02   .87300E+02  -.46435E+01
   .17500E+02   .87264E+02  -.46347E+01
   .17530E+02   .87211E+02  -.46222E+01
   .17590E+02   .87101E+02  -.45971E+01
   .17650E+02   .86982E+02  -.45723E+01
   .17700E+02   .86878E+02  -.45517E+01
   .17740E+02   .86789E+02  -.45357E+01
   .17780E+02   .86696E+02  -.45197E+01
   .17810E+02   .86622E+02  -.45077E+01
   .17850E+02   .86519E+02  -.44917E+01
   .17890E+02   .86410E+02  -.44757E+01
   .17930E+02   .86293E+02  -.44597E+01
   .17970E+02   .86168E+02  -.44437E+01
   .18000E+02   .86067E+02  -.44317E+01
   .18030E+02   .85961E+02  -.44202E+01
   .18070E+02   .85809E+02  -.44049E+01
   .18090E+02   .85727E+02  -.43973E+01
   .18110E+02   .85641E+02  -.43896E+01
   .18130E+02   .85551E+02  -.43819E+01
   .18150E+02   .85456E+02  -.43743E+01
   .18170E+02   .85356E+02  -.43666E+01
   .18190E+02   .85249E+02  -.43589E+01
   .18210E+02   .85135E+02  -.43513E+01
   .18230E+02   .85014E+02  -.43436E+01
   .18250E+02   .84883E+02  -.43360E+01
   .18270E+02   .84742E+02  -.43283E+01
   .18285E+02   .84628E+02  -.43225E+01
   .18300E+02   .84506E+02  -.43168E+01
   .18315E+02   .84375E+02  -.43113E+01
   .18330E+02   .84233E+02  -.43057E+01
   .18345E+02   .84079E+02  -.43002E+01
   .18360E+02   .83910E+02  -.42946E+01
   .18370E+02   .83788E+02  -.42909E+01
   .18380E+02   .83657E+02  -.42873E+01
   .18387E+02   .83559E+02  -.42847E+01
   .18395E+02   .83439E+02  -.42817E+01
   .18403E+02   .83311E+02  -.42788E+01
   .18410E+02   .83192E+02  -.42762E+01
   .18420E+02   .83005E+02  -.42725E+01
   .18425E+02   .82904E+02  -.42706E+01
   .18430E+02   .82797E+02  -.42688E+01
   .18438E+02   .82611E+02  -.42658E+01
   .18445E+02   .82431E+02  -.42632E+01
   .18453E+02   .82201E+02  -.42603E+01
   .18460E+02   .81973E+02  -.42577E+01
   .18464E+02   .81828E+02  -.42562E+01
   .18467E+02   .81712E+02  -.42551E+01
   .18471E+02   .81544E+02  -.42536E+01
   .18475E+02   .81360E+02  -.42522E+01
   .18479E+02   .81157E+02  -.42507E+01
   .18483E+02   .80928E+02  -.42492E+01
   .18487E+02   .80668E+02  -.42477E+01
   .18490E+02   .80447E+02  -.42466E+01
   .18494E+02   .80107E+02  -.42451E+01
   .18497E+02   .79808E+02  -.42440E+01
   .18500E+02   .79457E+02  -.42429E+01
   .18501E+02   .79256E+02  -.42424E+01
   .18503E+02   .79033E+02  -.42418E+01
   .18505E+02   .78695E+02  -.42411E+01
   .18507E+02   .78295E+02  -.42403E+01
   .18508E+02   .77940E+02  -.42398E+01
   .18510E+02   .77521E+02  -.42392E+01
   .18511E+02   .77012E+02  -.42387E+01
   .18512E+02   .76733E+02  -.42384E+01
   .18513E+02   .76370E+02  -.42381E+01
   .18514E+02   .75832E+02  -.42378E+01
   .18515E+02   .75153E+02  -.42374E+01
   .18516E+02   .74332E+02  -.42371E+01
   .18517E+02   .73099E+02  -.42368E+01
   .18517E+02   .73032E+02  -.46591E+01
   .18517E+02   .73036E+02  -.50814E+01
   .18517E+02   .73011E+02  -.59260E+01
   .18517E+02   .72730E+02  -.42365E+01
   .18518E+02   .71643E+02  -.42364E+01
   .18518E+02   .69945E+02  -.42362E+01
   .18518E+02   .71868E+02  -.13298E+02
   .18519E+02   .73674E+02  -.42360E+01
   .18520E+02   .69927E+02  -.42357E+01
   .18520E+02   .68031E+02  -.42356E+01
   .18520E+02   .65629E+02  -.42354E+01
   .18521E+02   .62226E+02  -.42353E+01
   .18521E+02   .56673E+02  -.42351E+01
   .18522E+02   .45515E+02  -.42350E+01
   .18522E+02   .19051E+02  -.42348E+01
   .18522E+02   .51762E+02  -.13268E+03
   .18522E+02   .68087E+02  -.19691E+03
   .18523E+02   .13332E+03  -.42346E+01
   .18523E+02   .11474E+03  -.42345E+01
   .18523E+02   .10812E+03  -.42345E+01
   .18523E+02   .99537E+02  -.48588E+01
   .18523E+02   .93791E+02  -.54832E+01
   .18524E+02   .89153E+02  -.48587E+01
   .18524E+02   .84332E+02  -.42342E+01
   .18524E+02   .82399E+02  -.42342E+01
   .18524E+02   .85886E+02  -.30392E+02
   .18525E+02   .90816E+02  -.42339E+01
   .18525E+02   .88631E+02  -.42339E+01
   .18525E+02   .86991E+02  -.15022E+02
   .18525E+02   .87061E+02  -.42336E+01
   .18526E+02   .84415E+02  -.42335E+01
   .18526E+02   .82109E+02  -.47804E+01
   .18526E+02   .80174E+02  -.61153E+01
   .18526E+02   .79147E+02  -.78230E+01
   .18526E+02   .79258E+02  -.10008E+02
   .18527E+02   .79741E+02  -.11267E+02
   .18527E+02   .80625E+02  -.11158E+02
   .18527E+02   .81232E+02  -.11049E+02
   .18527E+02   .81474E+02  -.10918E+02
   .18528E+02   .81551E+02  -.10842E+02
   .18528E+02   .81617E+02  -.10737E+02
   .18528E+02   .81636E+02  -.10679E+02
   .18528E+02   .81642E+02  -.10622E+02
   .18528E+02   .81638E+02  -.10543E+02
   .18529E+02   .81619E+02  -.10477E+02
   .18529E+02   .81607E+02  -.10433E+02
   .18529E+02   .81590E+02  -.10400E+02
   .18529E+02   .81573E+02  -.10367E+02
   .18530E+02   .81556E+02  -.10335E+02
   .18530E+02   .81538E+02  -.10302E+02
   .18530E+02   .81501E+02  -.10254E+02
   .18531E+02   .81476E+02  -.10218E+02
   .18531E+02   .81442E+02  -.10183E+02
   .18531E+02   .81414E+02  -.10148E+02
   .18532E+02   .81387E+02  -.10122E+02
   .18532E+02   .81369E+02  -.10103E+02
   .18533E+02   .81329E+02  -.10068E+02
   .18534E+02   .81304E+02  -.10046E+02
   .18534E+02   .81286E+02  -.10030E+02
   .18535E+02   .81278E+02  -.10021E+02
   .18536E+02   .81276E+02  -.10018E+02
   .18537E+02   .81282E+02  -.10015E+02
   .18538E+02   .81309E+02  -.10017E+02
   .18539E+02   .81352E+02  -.10022E+02
   .18541E+02   .81407E+02  -.10027E+02
   .18542E+02   .81469E+02  -.10028E+02
   .18544E+02   .81535E+02  -.10029E+02
   .18545E+02   .81603E+02  -.10024E+02
   .18547E+02   .81671E+02  -.10019E+02
   .18549E+02   .81738E+02  -.10008E+02
   .18550E+02   .81802E+02  -.99974E+01
   .18552E+02   .81884E+02  -.99798E+01
   .18555E+02   .81995E+02  -.99533E+01
   .18558E+02   .82097E+02  -.99293E+01
   .18560E+02   .82157E+02  -.99133E+01
   .18563E+02   .82243E+02  -.98973E+01
   .18565E+02   .82296E+02  -.98867E+01
   .18568E+02   .82372E+02  -.98796E+01
   .18570E+02   .82420E+02  -.98749E+01
   .18575E+02   .82539E+02  -.98743E+01
   .18580E+02   .82656E+02  -.98798E+01
   .18585E+02   .82772E+02  -.98859E+01
   .18590E+02   .82887E+02  -.98921E+01
   .18595E+02   .82998E+02  -.98921E+01
   .18600E+02   .83105E+02  -.98922E+01
   .18605E+02   .83206E+02  -.98867E+01
   .18610E+02   .83300E+02  -.98813E+01
   .18615E+02   .83389E+02  -.98758E+01
   .18620E+02   .83473E+02  -.98704E+01
   .18625E+02   .83553E+02  -.98649E+01
   .18630E+02   .83628E+02  -.98595E+01
   .18640E+02   .83770E+02  -.98566E+01
   .18650E+02   .83907E+02  -.98536E+01
   .18658E+02   .84011E+02  -.98477E+01
   .18665E+02   .84097E+02  -.98425E+01
   .18673E+02   .84190E+02  -.98366E+01
   .18680E+02   .84269E+02  -.98314E+01
   .18690E+02   .84375E+02  -.98240E+01
   .18700E+02   .84475E+02  -.98166E+01
   .18715E+02   .84617E+02  -.98055E+01
   .18730E+02   .84748E+02  -.97945E+01
   .18740E+02   .84832E+02  -.97871E+01
   .18750E+02   .84911E+02  -.97797E+01
   .18770E+02   .85061E+02  -.97650E+01
   .18800E+02   .85268E+02  -.97429E+01
   .18820E+02   .85394E+02  -.97267E+01
   .18850E+02   .85568E+02  -.97023E+01
   .18880E+02   .85728E+02  -.96779E+01
   .18900E+02   .85827E+02  -.96617E+01
   .18920E+02   .85922E+02  -.96449E+01
   .18950E+02   .86054E+02  -.96198E+01
   .18970E+02   .86137E+02  -.96031E+01
   .19000E+02   .86255E+02  -.95779E+01
   .19020E+02   .86329E+02  -.95612E+01
   .19050E+02   .86435E+02  -.95361E+01
   .19070E+02   .86502E+02  -.95193E+01
   .19100E+02   .86598E+02  -.94942E+01
   .19130E+02   .86688E+02  -.94707E+01
   .19150E+02   .86746E+02  -.94550E+01
   .19200E+02   .86884E+02  -.94158E+01
   .19250E+02   .87011E+02  -.93766E+01
   .19300E+02   .87130E+02  -.93374E+01
   .19350E+02   .87241E+02  -.92978E+01
   .19400E+02   .87344E+02  -.92582E+01
   .19450E+02   .87440E+02  -.92186E+01
   .19500E+02   .87531E+02  -.91790E+01
   .19550E+02   .87615E+02  -.91394E+01
   .19600E+02   .87695E+02  -.90998E+01
   .19650E+02   .87771E+02  -.90602E+01
   .19700E+02   .87842E+02  -.90206E+01
   .19740E+02   .87896E+02  -.89897E+01
   .19780E+02   .87948E+02  -.89587E+01
   .19850E+02   .88033E+02  -.89045E+01
   .19930E+02   .88122E+02  -.88426E+01
   .20000E+02   .88193E+02  -.87885E+01
   .20050E+02   .88241E+02  -.87514E+01
   .20100E+02   .88286E+02  -.87144E+01
   .20200E+02   .88369E+02  -.86404E+01
   .20300E+02   .88443E+02  -.85683E+01
   .20400E+02   .88509E+02  -.84963E+01
   .20500E+02   .88568E+02  -.84261E+01
   .20600E+02   .88619E+02  -.83560E+01
   .20700E+02   .88664E+02  -.82876E+01
   .20792E+02   .88699E+02  -.82248E+01
   .20870E+02   .88724E+02  -.81730E+01
   .20950E+02   .88746E+02  -.81201E+01
   .21020E+02   .88762E+02  -.80737E+01
   .21100E+02   .88777E+02  -.80208E+01
   .21200E+02   .88790E+02  -.79575E+01
   .21300E+02   .88797E+02  -.78942E+01
   .21400E+02   .88797E+02  -.78309E+01
   .21500E+02   .88790E+02  -.77677E+01
   .21570E+02   .88782E+02  -.77253E+01
   .21650E+02   .88767E+02  -.76769E+01
   .21730E+02   .88748E+02  -.76284E+01
   .21800E+02   .88727E+02  -.75861E+01
   .21900E+02   .88690E+02  -.75279E+01
   .22000E+02   .88642E+02  -.74699E+01
   .22080E+02   .88596E+02  -.74234E+01
   .22163E+02   .88540E+02  -.73751E+01
   .22220E+02   .88495E+02  -.73432E+01
   .22280E+02   .88443E+02  -.73096E+01
   .22340E+02   .88383E+02  -.72760E+01
   .22400E+02   .88316E+02  -.72424E+01
   .22450E+02   .88254E+02  -.72151E+01
   .22500E+02   .88184E+02  -.71879E+01
   .22550E+02   .88105E+02  -.71606E+01
   .22600E+02   .88016E+02  -.71333E+01
   .22630E+02   .87957E+02  -.71176E+01
   .22650E+02   .87915E+02  -.71071E+01
   .22670E+02   .87871E+02  -.70966E+01
   .22700E+02   .87798E+02  -.70809E+01
   .22720E+02   .87746E+02  -.70704E+01
   .22750E+02   .87661E+02  -.70546E+01
   .22780E+02   .87567E+02  -.70389E+01
   .22800E+02   .87497E+02  -.70284E+01
   .22820E+02   .87421E+02  -.70179E+01
   .22840E+02   .87338E+02  -.70075E+01
   .22855E+02   .87270E+02  -.69996E+01
   .22870E+02   .87197E+02  -.69917E+01
   .22885E+02   .87117E+02  -.69838E+01
   .22900E+02   .87029E+02  -.69760E+01
   .22915E+02   .86931E+02  -.69681E+01
   .22930E+02   .86822E+02  -.69602E+01
   .22938E+02   .86758E+02  -.69560E+01
   .22945E+02   .86698E+02  -.69524E+01
   .22953E+02   .86624E+02  -.69482E+01
   .22960E+02   .86554E+02  -.69445E+01
   .22967E+02   .86479E+02  -.69408E+01
   .22975E+02   .86385E+02  -.69366E+01
   .22983E+02   .86281E+02  -.69324E+01
   .22990E+02   .86178E+02  -.69288E+01
   .22998E+02   .86047E+02  -.69246E+01
   .23005E+02   .85914E+02  -.69209E+01
   .23009E+02   .85830E+02  -.69188E+01
   .23012E+02   .85761E+02  -.69172E+01
   .23016E+02   .85661E+02  -.69151E+01
   .23020E+02   .85551E+02  -.69130E+01
   .23025E+02   .85392E+02  -.69104E+01
   .23028E+02   .85284E+02  -.69088E+01
   .23030E+02   .85204E+02  -.69078E+01
   .23033E+02   .85073E+02  -.69062E+01
   .23035E+02   .84975E+02  -.69052E+01
   .23038E+02   .84809E+02  -.69036E+01
   .23040E+02   .84682E+02  -.69026E+01
   .23043E+02   .84460E+02  -.69010E+01
   .23045E+02   .84284E+02  -.68999E+01
   .23047E+02   .84077E+02  -.68989E+01
   .23048E+02   .83959E+02  -.68983E+01
   .23049E+02   .83828E+02  -.68978E+01
   .23051E+02   .83603E+02  -.68970E+01
   .23052E+02   .83331E+02  -.68962E+01
   .23053E+02   .83115E+02  -.68957E+01
   .23054E+02   .82859E+02  -.68952E+01
   .23055E+02   .82549E+02  -.68947E+01
   .23056E+02   .82157E+02  -.68941E+01
   .23057E+02   .81551E+02  -.68936E+01
   .23058E+02   .80190E+02  -.68930E+01
   .23058E+02   .80192E+02  -.76069E+01
   .23058E+02   .80370E+02  -.83208E+01
   .23059E+02   .80539E+02  -.90348E+01
   .23059E+02   .80874E+02  -.10463E+02
   .23059E+02   .81485E+02  -.68925E+01
   .23060E+02   .80585E+02  -.68923E+01
   .23060E+02   .79717E+02  -.68921E+01
   .23061E+02   .78753E+02  -.68918E+01
   .23061E+02   .77504E+02  -.68915E+01
   .23062E+02   .75696E+02  -.68913E+01
   .23062E+02   .72717E+02  -.68910E+01
   .23063E+02   .66618E+02  -.68908E+01
   .23063E+02   .53238E+02  -.68906E+01
   .23063E+02   .61969E+02  -.47141E+02
   .23063E+02   .68825E+02  -.67266E+02
   .23063E+02   .82547E+02  -.10752E+03
   .23064E+02   .96253E+02  -.67266E+02
   .23064E+02   .11176E+03  -.68901E+01
   .23064E+02   .10029E+03  -.68899E+01
   .23065E+02   .94793E+02  -.68898E+01
   .23065E+02   .91216E+02  -.68896E+01
   .23065E+02   .88013E+02  -.68894E+01
   .23065E+02   .87385E+02  -.68893E+01
   .23066E+02   .86845E+02  -.13862E+02
   .23066E+02   .86094E+02  -.80429E+01
   .23066E+02   .86676E+02  -.82622E+01
   .23066E+02   .87386E+02  -.16129E+02
   .23067E+02   .89131E+02  -.10095E+02
   .23067E+02   .88458E+02  -.10062E+02
   .23067E+02   .87946E+02  -.10028E+02
   .23068E+02   .87710E+02  -.10009E+02
   .23068E+02   .87438E+02  -.99794E+01
   .23068E+02   .87292E+02  -.99657E+01
   .23069E+02   .87113E+02  -.99453E+01
   .23069E+02   .87010E+02  -.99317E+01
   .23069E+02   .86878E+02  -.99112E+01
   .23069E+02   .86730E+02  -.98960E+01
   .23070E+02   .86638E+02  -.98846E+01
   .23070E+02   .86533E+02  -.98695E+01
   .23070E+02   .86443E+02  -.98544E+01
   .23071E+02   .86382E+02  -.98493E+01
   .23071E+02   .86314E+02  -.98425E+01
   .23072E+02   .86204E+02  -.98289E+01
   .23073E+02   .86120E+02  -.98245E+01
   .23073E+02   .86063E+02  -.98207E+01
   .23074E+02   .86014E+02  -.98214E+01
   .23075E+02   .85981E+02  -.98220E+01
   .23076E+02   .85953E+02  -.98252E+01
   .23076E+02   .85937E+02  -.98280E+01
   .23078E+02   .85917E+02  -.98340E+01
   .23080E+02   .85914E+02  -.98385E+01
   .23081E+02   .85922E+02  -.98429E+01
   .23083E+02   .85938E+02  -.98430E+01
   .23084E+02   .85958E+02  -.98431E+01
   .23086E+02   .85981E+02  -.98389E+01
   .23087E+02   .86006E+02  -.98347E+01
   .23088E+02   .86031E+02  -.98278E+01
   .23090E+02   .86055E+02  -.98208E+01
   .23092E+02   .86086E+02  -.98108E+01
   .23094E+02   .86116E+02  -.98006E+01
   .23096E+02   .86144E+02  -.97906E+01
   .23098E+02   .86170E+02  -.97805E+01
   .23100E+02   .86194E+02  -.97743E+01
   .23102E+02   .86219E+02  -.97681E+01
   .23105E+02   .86252E+02  -.97588E+01
   .23109E+02   .86296E+02  -.97557E+01
   .23113E+02   .86339E+02  -.97526E+01
   .23116E+02   .86370E+02  -.97538E+01
   .23120E+02   .86414E+02  -.97554E+01
   .23127E+02   .86491E+02  -.97564E+01
   .23135E+02   .86575E+02  -.97576E+01
   .23142E+02   .86645E+02  -.97520E+01
   .23150E+02   .86716E+02  -.97456E+01
   .23158E+02   .86782E+02  -.97407E+01
   .23165E+02   .86836E+02  -.97363E+01
   .23173E+02   .86894E+02  -.97314E+01
   .23180E+02   .86941E+02  -.97271E+01
   .23188E+02   .86993E+02  -.97226E+01
   .23195E+02   .87036E+02  -.97187E+01
   .23210E+02   .87121E+02  -.97104E+01
   .23225E+02   .87199E+02  -.97020E+01
   .23240E+02   .87270E+02  -.96936E+01
   .23255E+02   .87336E+02  -.96852E+01
   .23270E+02   .87397E+02  -.96767E+01
   .23285E+02   .87453E+02  -.96682E+01
   .23300E+02   .87507E+02  -.96598E+01
   .23320E+02   .87572E+02  -.96469E+01
   .23340E+02   .87631E+02  -.96339E+01
   .23360E+02   .87684E+02  -.96210E+01
   .23380E+02   .87733E+02  -.96081E+01
   .23400E+02   .87778E+02  -.95954E+01
   .23420E+02   .87818E+02  -.95827E+01
   .23440E+02   .87855E+02  -.95701E+01
   .23467E+02   .87900E+02  -.95529E+01
   .23490E+02   .87933E+02  -.95380E+01
   .23520E+02   .87970E+02  -.95186E+01
   .23550E+02   .87999E+02  -.94991E+01
   .23580E+02   .88020E+02  -.94796E+01
   .23610E+02   .88032E+02  -.94602E+01
   .23640E+02   .88035E+02  -.94407E+01
   .23655E+02   .88033E+02  -.94310E+01
   .23670E+02   .88027E+02  -.94213E+01
   .23685E+02   .88019E+02  -.94115E+01
   .23700E+02   .88006E+02  -.94018E+01
   .23720E+02   .87981E+02  -.93893E+01
   .23730E+02   .87966E+02  -.93831E+01
   .23740E+02   .87948E+02  -.93769E+01
   .23750E+02   .87926E+02  -.93706E+01
   .23760E+02   .87901E+02  -.93644E+01
   .23770E+02   .87871E+02  -.93582E+01
   .23780E+02   .87836E+02  -.93519E+01
   .23790E+02   .87793E+02  -.93457E+01
   .23800E+02   .87743E+02  -.93395E+01
   .23805E+02   .87713E+02  -.93363E+01
   .23810E+02   .87681E+02  -.93332E+01
   .23815E+02   .87644E+02  -.93301E+01
   .23820E+02   .87602E+02  -.93270E+01
   .23825E+02   .87555E+02  -.93239E+01
   .23830E+02   .87500E+02  -.93208E+01
   .23835E+02   .87436E+02  -.93176E+01
   .23838E+02   .87391E+02  -.93158E+01
   .23840E+02   .87358E+02  -.93145E+01
   .23844E+02   .87283E+02  -.93120E+01
   .23847E+02   .87215E+02  -.93102E+01
   .23849E+02   .87163E+02  -.93089E+01
   .23851E+02   .87105E+02  -.93077E+01
   .23853E+02   .87055E+02  -.93067E+01
   .23854E+02   .86998E+02  -.93058E+01
   .23856E+02   .86910E+02  -.93045E+01
   .23858E+02   .86800E+02  -.93033E+01
   .23860E+02   .86698E+02  -.93024E+01
   .23860E+02   .86632E+02  -.93019E+01
   .23861E+02   .86567E+02  -.93014E+01
   .23862E+02   .86480E+02  -.93009E+01
   .23862E+02   .86390E+02  -.93005E+01
   .23863E+02   .86281E+02  -.93000E+01
   .23864E+02   .86120E+02  -.92996E+01
   .23865E+02   .85929E+02  -.92991E+01
   .23865E+02   .85785E+02  -.92989E+01
   .23865E+02   .85598E+02  -.92986E+01
   .23866E+02   .85338E+02  -.92984E+01
   .23866E+02   .84941E+02  -.92981E+01
   .23867E+02   .84213E+02  -.92979E+01
   .23867E+02   .82984E+02  -.92977E+01
   .23867E+02   .83346E+02  -.11292E+02
   .23867E+02   .83976E+02  -.13286E+02
   .23867E+02   .84595E+02  -.15280E+02
   .23868E+02   .85841E+02  -.19268E+02
   .23868E+02   .87074E+02  -.15280E+02
   .23868E+02   .88609E+02  -.92971E+01
   .23868E+02   .87196E+02  -.92969E+01
   .23869E+02   .86002E+02  -.92967E+01
   .23869E+02   .85885E+02  -.92965E+01
   .23869E+02   .85781E+02  -.11935E+02
   .23869E+02   .85759E+02  -.95178E+01
   .23869E+02   .85737E+02  -.96833E+01
   .23869E+02   .85943E+02  -.98645E+01
   .23870E+02   .86188E+02  -.10049E+02
   .23870E+02   .86443E+02  -.12743E+02
   .23870E+02   .87183E+02  -.10781E+02
   .23871E+02   .87030E+02  -.10781E+02
   .23871E+02   .86965E+02  -.10780E+02
   .23872E+02   .86943E+02  -.10780E+02
   .23872E+02   .86939E+02  -.10780E+02
   .23872E+02   .86945E+02  -.10779E+02
   .23873E+02   .86958E+02  -.10779E+02
   .23874E+02   .86974E+02  -.10779E+02
   .23874E+02   .86992E+02  -.10778E+02
   .23875E+02   .87010E+02  -.10778E+02
   .23875E+02   .87029E+02  -.10778E+02
   .23875E+02   .87048E+02  -.10777E+02
   .23876E+02   .87066E+02  -.10777E+02
   .23877E+02   .87103E+02  -.10776E+02
   .23878E+02   .87137E+02  -.10776E+02
   .23879E+02   .87171E+02  -.10775E+02
   .23880E+02   .87202E+02  -.10774E+02
   .23881E+02   .87232E+02  -.10774E+02
   .23882E+02   .87260E+02  -.10773E+02
   .23883E+02   .87300E+02  -.10772E+02
   .23885E+02   .87339E+02  -.10771E+02
   .23887E+02   .87385E+02  -.10769E+02
   .23889E+02   .87428E+02  -.10768E+02
   .23890E+02   .87458E+02  -.10767E+02
   .23892E+02   .87487E+02  -.10766E+02
   .23896E+02   .87557E+02  -.10763E+02
   .23900E+02   .87620E+02  -.10761E+02
   .23904E+02   .87676E+02  -.10758E+02
   .23908E+02   .87728E+02  -.10755E+02
   .23912E+02   .87776E+02  -.10752E+02
   .23915E+02   .87810E+02  -.10750E+02
   .23919E+02   .87852E+02  -.10748E+02
   .23923E+02   .87892E+02  -.10745E+02
   .23930E+02   .87955E+02  -.10740E+02
   .23938E+02   .88022E+02  -.10735E+02
   .23945E+02   .88076E+02  -.10730E+02
   .23953E+02   .88132E+02  -.10725E+02
   .23960E+02   .88178E+02  -.10720E+02
   .23967E+02   .88222E+02  -.10715E+02
   .23975E+02   .88269E+02  -.10710E+02
   .23990E+02   .88351E+02  -.10700E+02
   .24005E+02   .88425E+02  -.10689E+02
   .24020E+02   .88494E+02  -.10679E+02
   .24035E+02   .88558E+02  -.10669E+02
   .24050E+02   .88618E+02  -.10659E+02
   .24070E+02   .88692E+02  -.10645E+02
   .24085E+02   .88745E+02  -.10635E+02
   .24100E+02   .88795E+02  -.10625E+02
   .24120E+02   .88859E+02  -.10611E+02
   .24140E+02   .88920E+02  -.10598E+02
   .24160E+02   .88977E+02  -.10584E+02
   .24180E+02   .89032E+02  -.10570E+02
   .24220E+02   .89135E+02  -.10543E+02
   .24250E+02   .89208E+02  -.10523E+02
   .24280E+02   .89277E+02  -.10502E+02
   .24320E+02   .89364E+02  -.10475E+02
   .24360E+02   .89446E+02  -.10448E+02
   .24400E+02   .89523E+02  -.10421E+02
   .24420E+02   .89561E+02  -.10408E+02
   .24450E+02   .89616E+02  -.10389E+02
   .24500E+02   .89703E+02  -.10357E+02
   .24550E+02   .89785E+02  -.10325E+02
   .24600E+02   .89864E+02  -.10292E+02
   .24680E+02   .89983E+02  -.10241E+02
   .24750E+02   .90081E+02  -.10196E+02
   .24820E+02   .90173E+02  -.10151E+02
   .24900E+02   .90274E+02  -.10099E+02
   .24950E+02   .90334E+02  -.10069E+02
   .25000E+02   .90392E+02  -.10038E+02
   .25050E+02   .90448E+02  -.10007E+02
   .25100E+02   .90502E+02  -.99769E+01
   .25180E+02   .90586E+02  -.99279E+01
   .25250E+02   .90657E+02  -.98851E+01
   .25320E+02   .90725E+02  -.98423E+01
   .25400E+02   .90799E+02  -.97933E+01
   .25470E+02   .90862E+02  -.97528E+01
   .25550E+02   .90931E+02  -.97065E+01
   .25630E+02   .90998E+02  -.96602E+01
   .25700E+02   .91054E+02  -.96197E+01
   .25770E+02   .91109E+02  -.95792E+01
   .25850E+02   .91170E+02  -.95328E+01
   .25920E+02   .91221E+02  -.94923E+01
   .26000E+02   .91278E+02  -.94460E+01
   .26100E+02   .91347E+02  -.93909E+01
   .26200E+02   .91413E+02  -.93358E+01
   .26300E+02   .91477E+02  -.92807E+01
   .26400E+02   .91538E+02  -.92256E+01
   .26470E+02   .91579E+02  -.91883E+01
   .26550E+02   .91626E+02  -.91457E+01
   .26630E+02   .91671E+02  -.91030E+01
   .26700E+02   .91710E+02  -.90658E+01
   .26800E+02   .91763E+02  -.90142E+01
   .26900E+02   .91815E+02  -.89626E+01
   .27000E+02   .91865E+02  -.89110E+01
   .27100E+02   .91914E+02  -.88594E+01
   .27200E+02   .91961E+02  -.88095E+01
   .27300E+02   .92007E+02  -.87595E+01
   .27390E+02   .92047E+02  -.87146E+01
   .27470E+02   .92081E+02  -.86747E+01
   .27600E+02   .92136E+02  -.86118E+01
   .27800E+02   .92216E+02  -.85152E+01
   .27950E+02   .92273E+02  -.84448E+01
   .28100E+02   .92328E+02  -.83744E+01
   .28250E+02   .92380E+02  -.83058E+01
   .28400E+02   .92431E+02  -.82373E+01
   .28550E+02   .92479E+02  -.81706E+01
   .28700E+02   .92526E+02  -.81039E+01
   .28800E+02   .92556E+02  -.80608E+01
   .28900E+02   .92586E+02  -.80177E+01
   .29000E+02   .92614E+02  -.79746E+01
   .29100E+02   .92642E+02  -.79315E+01
   .29250E+02   .92683E+02  -.78688E+01
   .29400E+02   .92722E+02  -.78061E+01
   .29550E+02   .92760E+02  -.77450E+01
   .29700E+02   .92797E+02  -.76839E+01
   .29850E+02   .92832E+02  -.76244E+01
   .29920E+02   .92848E+02  -.75966E+01
   .30000E+02   .92866E+02  -.75649E+01
   .30100E+02   .92888E+02  -.75263E+01
   .30200E+02   .92909E+02  -.74878E+01
   .30300E+02   .92930E+02  -.74492E+01
   .30400E+02   .92951E+02  -.74107E+01
   .30500E+02   .92971E+02  -.73734E+01
   .30600E+02   .92991E+02  -.73361E+01
   .30700E+02   .93010E+02  -.72989E+01
   .30800E+02   .93029E+02  -.72616E+01
   .30900E+02   .93047E+02  -.72255E+01
   .31000E+02   .93065E+02  -.71895E+01
   .31200E+02   .93100E+02  -.71174E+01
   .31350E+02   .93125E+02  -.70648E+01
   .31500E+02   .93150E+02  -.70122E+01
   .31700E+02   .93181E+02  -.69441E+01
   .31900E+02   .93211E+02  -.68760E+01
   .32100E+02   .93240E+02  -.68100E+01
   .32300E+02   .93268E+02  -.67441E+01
   .32450E+02   .93288E+02  -.66960E+01
   .32600E+02   .93307E+02  -.66478E+01
   .32800E+02   .93333E+02  -.65854E+01
   .33000E+02   .93357E+02  -.65230E+01
   .33100E+02   .93369E+02  -.64923E+01
   .33200E+02   .93381E+02  -.64616E+01
   .33300E+02   .93392E+02  -.64309E+01
   .33400E+02   .93403E+02  -.64002E+01
   .33500E+02   .93414E+02  -.63704E+01
   .33600E+02   .93424E+02  -.63407E+01
   .33700E+02   .93435E+02  -.63109E+01
   .33800E+02   .93445E+02  -.62811E+01
   .33950E+02   .93460E+02  -.62377E+01
   .34100E+02   .93474E+02  -.61942E+01
   .34300E+02   .93492E+02  -.61378E+01
   .34500E+02   .93510E+02  -.60813E+01
   .34700E+02   .93527E+02  -.60270E+01
   .34900E+02   .93544E+02  -.59726E+01
   .35000E+02   .93552E+02  -.59454E+01
   .35100E+02   .93560E+02  -.59183E+01
   .35200E+02   .93567E+02  -.58911E+01
   .35300E+02   .93575E+02  -.58639E+01
   .35400E+02   .93582E+02  -.58380E+01
   .35500E+02   .93589E+02  -.58120E+01
   .35600E+02   .93596E+02  -.57860E+01
   .35650E+02   .93600E+02  -.57730E+01
   .35700E+02   .93603E+02  -.57600E+01
   .35730E+02   .93605E+02  -.57522E+01
   .35750E+02   .93606E+02  -.57470E+01
   .35760E+02   .93607E+02  -.57444E+01
   .35770E+02   .93607E+02  -.57418E+01
   .35778E+02   .93608E+02  -.57397E+01
   .35785E+02   .93608E+02  -.57379E+01
   .35788E+02   .93609E+02  -.57371E+01
   .35792E+02   .93609E+02  -.57361E+01
   .35794E+02   .93609E+02  -.57356E+01
   .35796E+02   .93609E+02  -.57351E+01
   .35797E+02   .93609E+02  -.57348E+01
   .35798E+02   .93609E+02  -.57345E+01
   .35799E+02   .93609E+02  -.57344E+01
   .35799E+02   .93609E+02  -.57343E+01
   .35799E+02   .93609E+02  -.57341E+01
   .35800E+02   .93610E+02  -.57340E+01
   .35800E+02   .93609E+02  -.57340E+01
   .35800E+02   .93609E+02  -.57339E+01
   .35801E+02   .93609E+02  -.57337E+01
   .35801E+02   .93609E+02  -.57336E+01
   .35802E+02   .93609E+02  -.57335E+01
   .35804E+02   .93610E+02  -.57331E+01
   .35805E+02   .93610E+02  -.57327E+01
   .35808E+02   .93610E+02  -.57319E+01
   .35810E+02   .93610E+02  -.57314E+01
   .35815E+02   .93610E+02  -.57301E+01
   .35820E+02   .93611E+02  -.57288E+01
   .35835E+02   .93612E+02  -.57249E+01
   .35850E+02   .93613E+02  -.57210E+01
   .35880E+02   .93615E+02  -.57132E+01
   .35900E+02   .93616E+02  -.57080E+01
   .35970E+02   .93620E+02  -.56898E+01
   .36030E+02   .93624E+02  -.56743E+01
   .36160E+02   .93632E+02  -.56419E+01
   .36300E+02   .93640E+02  -.56071E+01
   .36400E+02   .93645E+02  -.55822E+01
   .36500E+02   .93651E+02  -.55573E+01
   .36650E+02   .93659E+02  -.55213E+01
   .36800E+02   .93666E+02  -.54853E+01
   .37000E+02   .93676E+02  -.54372E+01
   .37300E+02   .93690E+02  -.53676E+01
   .37500E+02   .93699E+02  -.53212E+01
   .37800E+02   .93711E+02  -.52540E+01
   .38000E+02   .93719E+02  -.52092E+01
   .38300E+02   .93730E+02  -.51439E+01
   .38500E+02   .93737E+02  -.51004E+01
   .38800E+02   .93746E+02  -.50374E+01
   .39000E+02   .93752E+02  -.49953E+01
   .39300E+02   .93760E+02  -.49343E+01
   .39500E+02   .93765E+02  -.48937E+01
   .39800E+02   .93772E+02  -.48346E+01
   .40000E+02   .93776E+02  -.47953E+01
   .40400E+02   .93784E+02  -.47205E+01
   .40800E+02   .93790E+02  -.46457E+01
   .41100E+02   .93795E+02  -.45922E+01
   .41500E+02   .93801E+02  -.45209E+01
   .41900E+02   .93806E+02  -.44529E+01
   .42300E+02   .93810E+02  -.43849E+01
   .42600E+02   .93813E+02  -.43362E+01
   .43000E+02   .93816E+02  -.42712E+01
   .43400E+02   .93819E+02  -.42084E+01
   .43800E+02   .93821E+02  -.41455E+01
   .44100E+02   .93822E+02  -.41005E+01
   .44500E+02   .93823E+02  -.40404E+01
   .44900E+02   .93824E+02  -.39827E+01
   .45300E+02   .93824E+02  -.39250E+01
   .45600E+02   .93824E+02  -.38833E+01
   .46000E+02   .93823E+02  -.38277E+01
   .46300E+02   .93822E+02  -.37874E+01
   .46500E+02   .93821E+02  -.37606E+01
   .47000E+02   .93819E+02  -.36953E+01
   .47500E+02   .93816E+02  -.36327E+01
   .48000E+02   .93812E+02  -.35701E+01
   .48500E+02   .93808E+02  -.35108E+01
   .49000E+02   .93803E+02  -.34516E+01
   .49500E+02   .93798E+02  -.33947E+01
   .50000E+02   .93793E+02  -.33393E+01
   .50500E+02   .93788E+02  -.32860E+01
   .51000E+02   .93782E+02  -.32326E+01
   .51500E+02   .93775E+02  -.31820E+01
   .52000E+02   .93769E+02  -.31313E+01
   .53000E+02   .93755E+02  -.30350E+01
   .54000E+02   .93741E+02  -.29434E+01
   .55000E+02   .93726E+02  -.28561E+01
   .56000E+02   .93711E+02  -.27722E+01
   .56800E+02   .93698E+02  -.27078E+01
   .57530E+02   .93686E+02  -.26512E+01
   .58000E+02   .93678E+02  -.26157E+01
   .58500E+02   .93669E+02  -.25788E+01
   .59540E+02   .93651E+02  -.25046E+01
   .59800E+02   .93647E+02  -.24866E+01
   .60000E+02   .93643E+02  -.24729E+01
   .60800E+02   .93629E+02  -.24190E+01
   .61500E+02   .93617E+02  -.23734E+01
   .62300E+02   .93602E+02  -.23229E+01
   .63000E+02   .93590E+02  -.22802E+01
   .64000E+02   .93571E+02  -.22212E+01
   .65000E+02   .93553E+02  -.21647E+01
   .65900E+02   .93536E+02  -.21156E+01
   .66830E+02   .93519E+02  -.20667E+01
   .67400E+02   .93508E+02  -.20377E+01
   .68000E+02   .93497E+02  -.20078E+01
   .69000E+02   .93478E+02  -.19595E+01
   .70000E+02   .93459E+02  -.19130E+01
   .71000E+02   .93440E+02  -.18681E+01
   .72000E+02   .93421E+02  -.18247E+01
   .73400E+02   .93394E+02  -.17667E+01
   .74839E+02   .93367E+02  -.17102E+01
   .74960E+02   .93364E+02  -.17055E+01
   .76000E+02   .93344E+02  -.16666E+01
   .77110E+02   .93323E+02  -.16265E+01
   .78600E+02   .93294E+02  -.15751E+01
   .79300E+02   .93280E+02  -.15519E+01
   .80000E+02   .93267E+02  -.15292E+01
   .81500E+02   .93237E+02  -.14821E+01
   .83000E+02   .93207E+02  -.14373E+01
   .84000E+02   .93187E+02  -.14087E+01
   .85000E+02   .93167E+02  -.13809E+01
   .86500E+02   .93137E+02  -.13409E+01
   .88000E+02   .93106E+02  -.13026E+01
   .89000E+02   .93085E+02  -.12781E+01
   .90000E+02   .93064E+02  -.12543E+01
   .91500E+02   .93032E+02  -.12198E+01
   .93000E+02   .92999E+02  -.11868E+01
   .94000E+02   .92976E+02  -.11656E+01
   .95000E+02   .92953E+02  -.11450E+01
   .96500E+02   .92918E+02  -.11152E+01
   .98000E+02   .92882E+02  -.10865E+01
   .99000E+02   .92857E+02  -.10681E+01
   .99500E+02   .92844E+02  -.10591E+01
   .10000E+03   .92831E+02  -.10502E+01
   .10100E+03   .92805E+02  -.10329E+01
   .10200E+03   .92778E+02  -.10156E+01
   .10300E+03   .92750E+02  -.99917E+00
   .10400E+03   .92721E+02  -.98277E+00
   .10480E+03   .92697E+02  -.97023E+00
   .10550E+03   .92675E+02  -.95925E+00
   .10630E+03   .92649E+02  -.94718E+00
   .10700E+03   .92626E+02  -.93662E+00
   .10780E+03   .92598E+02  -.92500E+00
   .10850E+03   .92573E+02  -.91482E+00
   .10930E+03   .92543E+02  -.90363E+00
   .11000E+03   .92516E+02  -.89383E+00
   .11080E+03   .92484E+02  -.88303E+00
   .11150E+03   .92454E+02  -.87358E+00
   .11230E+03   .92418E+02  -.86317E+00
   .11300E+03   .92385E+02  -.85407E+00
   .11380E+03   .92344E+02  -.84402E+00
   .11450E+03   .92307E+02  -.83523E+00
   .11530E+03   .92261E+02  -.82553E+00
   .11570E+03   .92237E+02  -.82069E+00
   .11600E+03   .92218E+02  -.81705E+00
   .11640E+03   .92192E+02  -.81237E+00
   .11680E+03   .92165E+02  -.80769E+00
   .11720E+03   .92136E+02  -.80300E+00
   .11750E+03   .92114E+02  -.79949E+00
   .11790E+03   .92083E+02  -.79497E+00
   .11830E+03   .92050E+02  -.79044E+00
   .11870E+03   .92016E+02  -.78592E+00
   .11900E+03   .91988E+02  -.78253E+00
   .11940E+03   .91950E+02  -.77815E+00
   .11980E+03   .91909E+02  -.77378E+00
   .12020E+03   .91865E+02  -.76941E+00
   .12050E+03   .91830E+02  -.76613E+00
   .12070E+03   .91805E+02  -.76401E+00
   .12090E+03   .91780E+02  -.76190E+00
   .12110E+03   .91753E+02  -.75978E+00
   .12130E+03   .91725E+02  -.75767E+00
   .12150E+03   .91695E+02  -.75555E+00
   .12170E+03   .91664E+02  -.75344E+00
   .12185E+03   .91640E+02  -.75185E+00
   .12200E+03   .91615E+02  -.75027E+00
   .12230E+03   .91562E+02  -.74718E+00
   .12250E+03   .91523E+02  -.74512E+00
   .12280E+03   .91461E+02  -.74204E+00
   .12290E+03   .91438E+02  -.74101E+00
   .12300E+03   .91415E+02  -.73998E+00
   .12315E+03   .91379E+02  -.73847E+00
   .12330E+03   .91340E+02  -.73696E+00
   .12340E+03   .91313E+02  -.73596E+00
   .12350E+03   .91285E+02  -.73495E+00
   .12365E+03   .91240E+02  -.73344E+00
   .12380E+03   .91192E+02  -.73193E+00
   .12390E+03   .91158E+02  -.73093E+00
   .12400E+03   .91121E+02  -.72992E+00
   .12407E+03   .91095E+02  -.72923E+00
   .12415E+03   .91063E+02  -.72843E+00
   .12422E+03   .91034E+02  -.72774E+00
   .12430E+03   .90999E+02  -.72695E+00
   .12440E+03   .90952E+02  -.72596E+00
   .12450E+03   .90902E+02  -.72497E+00
   .12460E+03   .90847E+02  -.72399E+00
   .12470E+03   .90788E+02  -.72301E+00
   .12475E+03   .90756E+02  -.72252E+00
   .12480E+03   .90723E+02  -.72203E+00
   .12485E+03   .90688E+02  -.72154E+00
   .12490E+03   .90651E+02  -.72105E+00
   .12497E+03   .90595E+02  -.72037E+00
   .12501E+03   .90561E+02  -.71998E+00
   .12505E+03   .90525E+02  -.71959E+00
   .12509E+03   .90487E+02  -.71920E+00
   .12513E+03   .90447E+02  -.71881E+00
   .12517E+03   .90405E+02  -.71842E+00
   .12520E+03   .90371E+02  -.71813E+00
   .12525E+03   .90310E+02  -.71764E+00
   .12527E+03   .90284E+02  -.71745E+00
   .12530E+03   .90243E+02  -.71716E+00
   .12532E+03   .90214E+02  -.71697E+00
   .12535E+03   .90169E+02  -.71668E+00
   .12538E+03   .90120E+02  -.71639E+00
   .12540E+03   .90085E+02  -.71619E+00
   .12542E+03   .90048E+02  -.71600E+00
   .12545E+03   .89988E+02  -.71571E+00
   .12547E+03   .89945E+02  -.71552E+00
   .12550E+03   .89873E+02  -.71523E+00
   .12551E+03   .89847E+02  -.71513E+00
   .12552E+03   .89819E+02  -.71504E+00
   .12554E+03   .89774E+02  -.71489E+00
   .12554E+03   .89750E+02  -.71482E+00
   .12555E+03   .89720E+02  -.71475E+00
   .12556E+03   .89699E+02  -.71470E+00
   .12556E+03   .89685E+02  -.71467E+00
   .12556E+03   .89675E+02  -.71465E+00
   .12556E+03   .89656E+02  -.71462E+00
   .12557E+03   .89642E+02  -.71460E+00
   .12557E+03   .89627E+02  -.71459E+00
   .12557E+03   .89586E+02  -.71457E+00
   .12557E+03   .89583E+02  -.71456E+00
   .12557E+03   .89580E+02  -.71456E+00
   .12557E+03   .89574E+02  -.80302E+00
   .12557E+03   .89610E+02  -.80301E+00
   .12558E+03   .89616E+02  -.80301E+00
   .12558E+03   .89618E+02  -.80300E+00
   .12558E+03   .89618E+02  -.80298E+00
   .12558E+03   .89615E+02  -.80297E+00
   .12559E+03   .89603E+02  -.80294E+00
   .12560E+03   .89589E+02  -.80291E+00
   .12561E+03   .89564E+02  -.80288E+00
   .12562E+03   .89536E+02  -.80284E+00
   .12564E+03   .89488E+02  -.80278E+00
   .12565E+03   .89434E+02  -.80272E+00
   .12566E+03   .89394E+02  -.80269E+00
   .12567E+03   .89350E+02  -.80265E+00
   .12568E+03   .89313E+02  -.80262E+00
   .12568E+03   .89278E+02  -.80259E+00
   .12569E+03   .89235E+02  -.80256E+00
   .12570E+03   .89196E+02  -.80253E+00
   .12571E+03   .89133E+02  -.80249E+00
   .12571E+03   .89100E+02  -.80247E+00
   .12572E+03   .89064E+02  -.80246E+00
   .12573E+03   .89003E+02  -.80243E+00
   .12574E+03   .88944E+02  -.80240E+00
   .12574E+03   .88870E+02  -.80237E+00
   .12575E+03   .88797E+02  -.80234E+00
   .12575E+03   .88751E+02  -.80233E+00
   .12576E+03   .88701E+02  -.80231E+00
   .12576E+03   .88648E+02  -.80230E+00
   .12576E+03   .88604E+02  -.80229E+00
   .12577E+03   .88542E+02  -.80227E+00
   .12577E+03   .88473E+02  -.80225E+00
   .12578E+03   .88396E+02  -.80224E+00
   .12578E+03   .88332E+02  -.80223E+00
   .12578E+03   .88236E+02  -.80221E+00
   .12579E+03   .88152E+02  -.80220E+00
   .12579E+03   .88090E+02  -.80219E+00
   .12579E+03   .88022E+02  -.80219E+00
   .12579E+03   .87971E+02  -.80218E+00
   .12579E+03   .87904E+02  -.80217E+00
   .12580E+03   .87812E+02  -.80217E+00
   .12580E+03   .87704E+02  -.80216E+00
   .12580E+03   .87622E+02  -.80216E+00
   .12580E+03   .87500E+02  -.80215E+00
   .12580E+03   .87388E+02  -.80214E+00
   .12580E+03   .87200E+02  -.80214E+00
   .12581E+03   .86877E+02  -.80213E+00
   .12581E+03   .86587E+02  -.80212E+00
   .12581E+03   .86489E+02  -.80212E+00
   .12581E+03   .86274E+02  -.80212E+00
   .12581E+03   .86510E+02  -.21425E+01
   .12581E+03   .86814E+02  -.80211E+00
   .12581E+03   .87104E+02  -.33509E+01
   .12581E+03   .87028E+02  -.14336E+01
   .12582E+03   .86763E+02  -.22950E+01
   .12582E+03   .86971E+02  -.29704E+01
   .12582E+03   .87462E+02  -.29605E+01
   .12582E+03   .87644E+02  -.29506E+01
   .12582E+03   .87778E+02  -.29422E+01
   .12583E+03   .87884E+02  -.29339E+01
   .12583E+03   .87972E+02  -.29260E+01
   .12583E+03   .88045E+02  -.29182E+01
   .12583E+03   .88139E+02  -.29182E+01
   .12583E+03   .88196E+02  -.29181E+01
   .12584E+03   .88272E+02  -.29181E+01
   .12584E+03   .88317E+02  -.29181E+01
   .12584E+03   .88380E+02  -.29225E+01
   .12585E+03   .88420E+02  -.29255E+01
   .12585E+03   .88478E+02  -.29299E+01
   .12585E+03   .88514E+02  -.29329E+01
   .12585E+03   .88566E+02  -.29349E+01
   .12586E+03   .88599E+02  -.29363E+01
   .12586E+03   .88676E+02  -.29397E+01
   .12586E+03   .88747E+02  -.29382E+01
   .12587E+03   .88810E+02  -.29367E+01
   .12588E+03   .88867E+02  -.29339E+01
   .12588E+03   .88918E+02  -.29311E+01
   .12589E+03   .88965E+02  -.29295E+01
   .12589E+03   .89009E+02  -.29280E+01
   .12589E+03   .89041E+02  -.29279E+01
   .12590E+03   .89073E+02  -.29279E+01
   .12590E+03   .89124E+02  -.29289E+01
   .12591E+03   .89180E+02  -.29301E+01
   .12592E+03   .89227E+02  -.29311E+01
   .12593E+03   .89288E+02  -.29306E+01
   .12594E+03   .89345E+02  -.29301E+01
   .12595E+03   .89397E+02  -.29288E+01
   .12596E+03   .89444E+02  -.29275E+01
   .12597E+03   .89480E+02  -.29275E+01
   .12597E+03   .89510E+02  -.29275E+01
   .12599E+03   .89570E+02  -.29274E+01
   .12601E+03   .89644E+02  -.29274E+01
   .12603E+03   .89711E+02  -.29273E+01
   .12604E+03   .89757E+02  -.29268E+01
   .12606E+03   .89801E+02  -.29264E+01
   .12608E+03   .89855E+02  -.29258E+01
   .12610E+03   .89906E+02  -.29251E+01
   .12611E+03   .89941E+02  -.29247E+01
   .12613E+03   .89975E+02  -.29243E+01
   .12615E+03   .90018E+02  -.29237E+01
   .12617E+03   .90059E+02  -.29232E+01
   .12619E+03   .90097E+02  -.29226E+01
   .12621E+03   .90133E+02  -.29220E+01
   .12625E+03   .90201E+02  -.29209E+01
   .12629E+03   .90263E+02  -.29196E+01
   .12633E+03   .90321E+02  -.29184E+01
   .12636E+03   .90361E+02  -.29174E+01
   .12640E+03   .90411E+02  -.29162E+01
   .12643E+03   .90447E+02  -.29152E+01
   .12647E+03   .90492E+02  -.29139E+01
   .12651E+03   .90534E+02  -.29126E+01
   .12655E+03   .90574E+02  -.29113E+01
   .12659E+03   .90613E+02  -.29100E+01
   .12663E+03   .90649E+02  -.29087E+01
   .12670E+03   .90708E+02  -.29064E+01
   .12675E+03   .90748E+02  -.29047E+01
   .12680E+03   .90786E+02  -.29029E+01
   .12685E+03   .90822E+02  -.29012E+01
   .12690E+03   .90856E+02  -.28995E+01
   .12697E+03   .90902E+02  -.28966E+01
   .12705E+03   .90951E+02  -.28934E+01
   .12713E+03   .90997E+02  -.28901E+01
   .12720E+03   .91035E+02  -.28873E+01
   .12728E+03   .91076E+02  -.28843E+01
   .12735E+03   .91109E+02  -.28817E+01
   .12742E+03   .91141E+02  -.28791E+01
   .12750E+03   .91176E+02  -.28762E+01
   .12765E+03   .91238E+02  -.28721E+01
   .12780E+03   .91296E+02  -.28680E+01
   .12790E+03   .91332E+02  -.28657E+01
   .12800E+03   .91368E+02  -.28635E+01
   .12810E+03   .91402E+02  -.28600E+01
   .12820E+03   .91435E+02  -.28565E+01
   .12830E+03   .91466E+02  -.28529E+01
   .12840E+03   .91496E+02  -.28494E+01
   .12850E+03   .91525E+02  -.28455E+01
   .12860E+03   .91553E+02  -.28415E+01
   .12870E+03   .91579E+02  -.28375E+01
   .12880E+03   .91605E+02  -.28336E+01
   .12900E+03   .91652E+02  -.28263E+01
   .12920E+03   .91697E+02  -.28191E+01
   .12935E+03   .91729E+02  -.28136E+01
   .12950E+03   .91760E+02  -.28082E+01
   .12970E+03   .91798E+02  -.28023E+01
   .12990E+03   .91835E+02  -.27965E+01
   .13010E+03   .91871E+02  -.27906E+01
   .13030E+03   .91905E+02  -.27847E+01
   .13050E+03   .91938E+02  -.27791E+01
   .13070E+03   .91970E+02  -.27734E+01
   .13100E+03   .92015E+02  -.27648E+01
   .13120E+03   .92045E+02  -.27585E+01
   .13140E+03   .92073E+02  -.27522E+01
   .13160E+03   .92101E+02  -.27459E+01
   .13180E+03   .92127E+02  -.27396E+01
   .13220E+03   .92177E+02  -.27270E+01
   .13250E+03   .92213E+02  -.27175E+01
   .13290E+03   .92257E+02  -.27043E+01
   .13330E+03   .92299E+02  -.26911E+01
   .13370E+03   .92338E+02  -.26779E+01
   .13400E+03   .92366E+02  -.26680E+01
   .13430E+03   .92393E+02  -.26584E+01
   .13450E+03   .92410E+02  -.26520E+01
   .13480E+03   .92436E+02  -.26423E+01
   .13500E+03   .92451E+02  -.26360E+01
   .13550E+03   .92490E+02  -.26213E+01
   .13580E+03   .92512E+02  -.26126E+01
   .13600E+03   .92527E+02  -.26067E+01
   .13640E+03   .92555E+02  -.25958E+01
   .13680E+03   .92582E+02  -.25849E+01
   .13720E+03   .92608E+02  -.25739E+01
   .13750E+03   .92627E+02  -.25657E+01
   .13790E+03   .92652E+02  -.25550E+01
   .13830E+03   .92676E+02  -.25443E+01
   .13870E+03   .92700E+02  -.25335E+01
   .13900E+03   .92717E+02  -.25255E+01
   .13950E+03   .92744E+02  -.25122E+01
   .14000E+03   .92770E+02  -.24990E+01
   .14050E+03   .92796E+02  -.24858E+01
   .14100E+03   .92821E+02  -.24726E+01
   .14150E+03   .92844E+02  -.24594E+01
   .14200E+03   .92867E+02  -.24463E+01
   .14250E+03   .92889E+02  -.24332E+01
   .14300E+03   .92910E+02  -.24200E+01
   .14360E+03   .92935E+02  -.24043E+01
   .14420E+03   .92958E+02  -.23885E+01
   .14480E+03   .92981E+02  -.23727E+01
   .14540E+03   .93003E+02  -.23570E+01
   .14570E+03   .93013E+02  -.23494E+01
   .14600E+03   .93023E+02  -.23418E+01
   .14670E+03   .93046E+02  -.23241E+01
   .14730E+03   .93065E+02  -.23093E+01
   .14800E+03   .93086E+02  -.22921E+01
   .14850E+03   .93101E+02  -.22801E+01
   .14900E+03   .93115E+02  -.22680E+01
   .14950E+03   .93129E+02  -.22561E+01
   .14980E+03   .93137E+02  -.22491E+01
   .15000E+03   .93142E+02  -.22443E+01
   .15100E+03   .93168E+02  -.22215E+01
   .15200E+03   .93192E+02  -.21987E+01
   .15300E+03   .93215E+02  -.21767E+01
   .15400E+03   .93237E+02  -.21546E+01
   .15500E+03   .93258E+02  -.21333E+01
   .15600E+03   .93278E+02  -.21119E+01
   .15700E+03   .93297E+02  -.20913E+01
   .15800E+03   .93314E+02  -.20706E+01
   .15900E+03   .93331E+02  -.20509E+01
   .16000E+03   .93348E+02  -.20312E+01
   .16100E+03   .93364E+02  -.20121E+01
   .16200E+03   .93379E+02  -.19930E+01
   .16280E+03   .93390E+02  -.19783E+01
   .16350E+03   .93400E+02  -.19654E+01
   .16430E+03   .93411E+02  -.19507E+01
   .16500E+03   .93420E+02  -.19378E+01
   .16600E+03   .93433E+02  -.19201E+01
   .16700E+03   .93445E+02  -.19023E+01
   .16800E+03   .93457E+02  -.18851E+01
   .16900E+03   .93468E+02  -.18679E+01
   .17000E+03   .93479E+02  -.18512E+01
   .17100E+03   .93489E+02  -.18345E+01
   .17200E+03   .93499E+02  -.18182E+01
   .17300E+03   .93509E+02  -.18020E+01
   .17400E+03   .93518E+02  -.17863E+01
   .17500E+03   .93527E+02  -.17707E+01
   .17600E+03   .93536E+02  -.17550E+01
   .17700E+03   .93544E+02  -.17393E+01
   .17780E+03   .93550E+02  -.17274E+01
   .17850E+03   .93556E+02  -.17170E+01
   .17930E+03   .93562E+02  -.17051E+01
   .18000E+03   .93567E+02  -.16947E+01
   .18080E+03   .93573E+02  -.16832E+01
   .18150E+03   .93578E+02  -.16731E+01
   .18230E+03   .93583E+02  -.16616E+01
   .18300E+03   .93588E+02  -.16515E+01
   .18400E+03   .93594E+02  -.16375E+01
   .18500E+03   .93600E+02  -.16236E+01
   .18650E+03   .93608E+02  -.16036E+01
   .18800E+03   .93616E+02  -.15836E+01
   .18900E+03   .93621E+02  -.15707E+01
   .19000E+03   .93626E+02  -.15578E+01
   .19150E+03   .93633E+02  -.15393E+01
   .19300E+03   .93640E+02  -.15208E+01
   .19400E+03   .93644E+02  -.15089E+01
   .19500E+03   .93648E+02  -.14970E+01
   .19650E+03   .93654E+02  -.14796E+01
   .19800E+03   .93659E+02  -.14623E+01
   .19900E+03   .93663E+02  -.14511E+01
   .20000E+03   .93666E+02  -.14399E+01
