    E(keV)         f1           f2     
   .10000E+01   .54030E+02  -.29235E+02
   .10050E+01   .54046E+02  -.29113E+02
   .10108E+01   .22081E+02  -.28972E+02
   .10108E+01   .54189E+02  -.13598E+03
   .10108E+01   .86297E+02  -.28971E+02
   .10125E+01   .54548E+02  -.28931E+02
   .10142E+01   .43737E+02  -.28890E+02
   .10142E+01   .54475E+02  -.64796E+02
   .10143E+01   .65213E+02  -.28889E+02
   .10158E+01   .54547E+02  -.28852E+02
   .10174E+01   .54390E+02  -.28815E+02
   .10190E+01   .54214E+02  -.28777E+02
   .10205E+01   .46482E+02  -.28740E+02
   .10206E+01   .53686E+02  -.53175E+02
   .10206E+01   .60874E+02  -.28739E+02
   .10206E+01   .55239E+02  -.28738E+02
   .10207E+01   .51778E+02  -.28737E+02
   .10207E+01   .55207E+02  -.40783E+02
   .10207E+01   .58668E+02  -.28736E+02
   .10212E+01   .54433E+02  -.28725E+02
   .10216E+01   .51284E+02  -.28714E+02
   .10217E+01   .53745E+02  -.37468E+02
   .10217E+01   .56083E+02  -.28713E+02
   .10217E+01   .55219E+02  -.28713E+02
   .10217E+01   .54413E+02  -.28713E+02
   .10217E+01   .55180E+02  -.33032E+02
   .10217E+01   .56194E+02  -.28712E+02
   .10218E+01   .54684E+02  -.28710E+02
   .10219E+01   .54329E+02  -.28708E+02
   .10220E+01   .53940E+02  -.28706E+02
   .10221E+01   .52610E+02  -.28704E+02
   .10221E+01   .54388E+02  -.34889E+02
   .10221E+01   .55812E+02  -.28703E+02
   .10221E+01   .55231E+02  -.28702E+02
   .10222E+01   .54894E+02  -.28702E+02
   .10222E+01   .54653E+02  -.28702E+02
   .10222E+01   .54439E+02  -.28702E+02
   .10222E+01   .54118E+02  -.28818E+02
   .10222E+01   .54006E+02  -.28958E+02
   .10222E+01   .53997E+02  -.29111E+02
   .10222E+01   .53942E+02  -.29170E+02
   .10222E+01   .53969E+02  -.29169E+02
   .10223E+01   .53941E+02  -.29169E+02
   .10223E+01   .53889E+02  -.29169E+02
   .10223E+01   .53709E+02  -.29169E+02
   .10223E+01   .53233E+02  -.29169E+02
   .10223E+01   .53549E+02  -.30874E+02
   .10223E+01   .54042E+02  -.32579E+02
   .10223E+01   .55024E+02  -.29168E+02
   .10224E+01   .54473E+02  -.29167E+02
   .10224E+01   .53873E+02  -.29167E+02
   .10224E+01   .54306E+02  -.31244E+02
   .10225E+01   .54844E+02  -.29166E+02
   .10225E+01   .54605E+02  -.29166E+02
   .10225E+01   .54241E+02  -.29165E+02
   .10225E+01   .54450E+02  -.30524E+02
   .10225E+01   .54737E+02  -.29165E+02
   .10226E+01   .54480E+02  -.29164E+02
   .10226E+01   .54267E+02  -.29164E+02
   .10226E+01   .54519E+02  -.30774E+02
   .10226E+01   .54849E+02  -.29164E+02
   .10226E+01   .54627E+02  -.29163E+02
   .10226E+01   .54550E+02  -.29163E+02
   .10227E+01   .54774E+02  -.30341E+02
   .10227E+01   .54919E+02  -.29163E+02
   .10227E+01   .54865E+02  -.29847E+02
   .10227E+01   .54981E+02  -.29162E+02
   .10233E+01   .54570E+02  -.29153E+02
   .10239E+01   .54561E+02  -.29143E+02
   .10245E+01   .54574E+02  -.29133E+02
   .10250E+01   .54589E+02  -.29125E+02
   .10260E+01   .54623E+02  -.29109E+02
   .10270E+01   .54658E+02  -.29093E+02
   .10300E+01   .54768E+02  -.29045E+02
   .10320E+01   .54846E+02  -.29013E+02
   .10370E+01   .55016E+02  -.28908E+02
   .10390E+01   .55082E+02  -.28866E+02
   .10410E+01   .55148E+02  -.28824E+02
   .10480E+01   .55359E+02  -.28662E+02
   .10550E+01   .55557E+02  -.28501E+02
   .10630E+01   .55766E+02  -.28316E+02
   .10700E+01   .55938E+02  -.28154E+02
   .10850E+01   .56284E+02  -.27818E+02
   .11000E+01   .56605E+02  -.27482E+02
   .11150E+01   .56906E+02  -.27162E+02
   .11300E+01   .57193E+02  -.26841E+02
   .11500E+01   .57554E+02  -.26422E+02
   .11700E+01   .57890E+02  -.26020E+02
   .12000E+01   .58357E+02  -.25415E+02
   .12300E+01   .58777E+02  -.24834E+02
   .12540E+01   .59083E+02  -.24378E+02
   .12900E+01   .59498E+02  -.23718E+02
   .13200E+01   .59805E+02  -.23186E+02
   .13500E+01   .60079E+02  -.22675E+02
   .13800E+01   .60325E+02  -.22177E+02
   .14100E+01   .60545E+02  -.21699E+02
   .14400E+01   .60740E+02  -.21236E+02
   .14700E+01   .60915E+02  -.20789E+02
   .15000E+01   .61071E+02  -.20359E+02
   .15200E+01   .61165E+02  -.20079E+02
   .15500E+01   .61284E+02  -.19660E+02
   .15700E+01   .61354E+02  -.19395E+02
   .16000E+01   .61444E+02  -.18998E+02
   .16200E+01   .61493E+02  -.18749E+02
   .16500E+01   .61554E+02  -.18374E+02
   .17000E+01   .61620E+02  -.17781E+02
   .17500E+01   .61648E+02  -.17221E+02
   .18000E+01   .61636E+02  -.16689E+02
   .18500E+01   .61586E+02  -.16180E+02
   .18999E+01   .61499E+02  -.15700E+02
   .19200E+01   .61455E+02  -.15512E+02
   .19500E+01   .61376E+02  -.15240E+02
   .19700E+01   .61317E+02  -.15062E+02
   .19850E+01   .61268E+02  -.14932E+02
   .20000E+01   .61217E+02  -.14802E+02
   .20300E+01   .61102E+02  -.14544E+02
   .20700E+01   .60924E+02  -.14212E+02
   .21100E+01   .60717E+02  -.13894E+02
   .21500E+01   .60478E+02  -.13587E+02
   .21800E+01   .60279E+02  -.13365E+02
   .22200E+01   .59984E+02  -.13078E+02
   .22600E+01   .59650E+02  -.12801E+02
   .22800E+01   .59468E+02  -.12668E+02
   .23000E+01   .59276E+02  -.12535E+02
   .23200E+01   .59071E+02  -.12405E+02
   .23500E+01   .58739E+02  -.12211E+02
   .23700E+01   .58500E+02  -.12088E+02
   .24000E+01   .58112E+02  -.11903E+02
   .24200E+01   .57831E+02  -.11784E+02
   .24500E+01   .57372E+02  -.11605E+02
   .24800E+01   .56860E+02  -.11434E+02
   .25000E+01   .56486E+02  -.11321E+02
   .25150E+01   .56186E+02  -.11238E+02
   .25300E+01   .55866E+02  -.11155E+02
   .25450E+01   .55524E+02  -.11074E+02
   .25600E+01   .55159E+02  -.10993E+02
   .25750E+01   .54766E+02  -.10915E+02
   .25900E+01   .54344E+02  -.10837E+02
   .26050E+01   .53886E+02  -.10759E+02
   .26210E+01   .53353E+02  -.10677E+02
   .26220E+01   .53318E+02  -.10671E+02
   .26225E+01   .53300E+02  -.10669E+02
   .26230E+01   .53282E+02  -.10666E+02
   .26310E+01   .52992E+02  -.10628E+02
   .26400E+01   .52647E+02  -.10586E+02
   .26500E+01   .52238E+02  -.10538E+02
   .26600E+01   .51798E+02  -.10491E+02
   .26700E+01   .51323E+02  -.10443E+02
   .26800E+01   .50807E+02  -.10396E+02
   .26900E+01   .50242E+02  -.10348E+02
   .26950E+01   .49938E+02  -.10324E+02
   .27000E+01   .49619E+02  -.10300E+02
   .27050E+01   .49281E+02  -.10277E+02
   .27100E+01   .48924E+02  -.10253E+02
   .27150E+01   .48544E+02  -.10229E+02
   .27200E+01   .48141E+02  -.10205E+02
   .27250E+01   .47705E+02  -.10182E+02
   .27300E+01   .47238E+02  -.10158E+02
   .27350E+01   .46732E+02  -.10134E+02
   .27400E+01   .46181E+02  -.10110E+02
   .27430E+01   .45824E+02  -.10096E+02
   .27450E+01   .45584E+02  -.10087E+02
   .27480E+01   .45179E+02  -.10072E+02
   .27500E+01   .44900E+02  -.10063E+02
   .27530E+01   .44456E+02  -.10049E+02
   .27550E+01   .44141E+02  -.10039E+02
   .27580E+01   .43636E+02  -.10025E+02
   .27600E+01   .43273E+02  -.10015E+02
   .27630E+01   .42685E+02  -.10001E+02
   .27650E+01   .42258E+02  -.99916E+01
   .27670E+01   .41796E+02  -.99821E+01
   .27690E+01   .41290E+02  -.99726E+01
   .27710E+01   .40745E+02  -.99631E+01
   .27730E+01   .40127E+02  -.99536E+01
   .27750E+01   .39390E+02  -.99441E+01
   .27771E+01   .32571E+02  -.99342E+01
   .27771E+01   .38781E+02  -.30710E+02
   .27772E+01   .44991E+02  -.99337E+01
   .27790E+01   .38192E+02  -.99257E+01
   .27797E+01   .37812E+02  -.99226E+01
   .27804E+01   .37450E+02  -.99196E+01
   .27812E+01   .36983E+02  -.99159E+01
   .27820E+01   .36492E+02  -.99123E+01
   .27828E+01   .35912E+02  -.99088E+01
   .27836E+01   .33455E+02  -.99054E+01
   .27836E+01   .35494E+02  -.16830E+02
   .27837E+01   .37531E+02  -.99049E+01
   .27841E+01   .35319E+02  -.99030E+01
   .27845E+01   .34159E+02  -.99010E+01
   .27846E+01   .34839E+02  -.12382E+02
   .27847E+01   .35513E+02  -.99005E+01
   .27847E+01   .35157E+02  -.99003E+01
   .27847E+01   .34960E+02  -.99001E+01
   .27848E+01   .34823E+02  -.10025E+02
   .27849E+01   .34722E+02  -.98996E+01
   .27849E+01   .34533E+02  -.98994E+01
   .27850E+01   .34257E+02  -.98992E+01
   .27850E+01   .34584E+02  -.11181E+02
   .27851E+01   .34847E+02  -.98987E+01
   .27851E+01   .34588E+02  -.98984E+01
   .27852E+01   .34344E+02  -.98982E+01
   .27852E+01   .34453E+02  -.10627E+02
   .27853E+01   .34523E+02  -.98977E+01
   .27853E+01   .34410E+02  -.98977E+01
   .27853E+01   .34340E+02  -.98976E+01
   .27854E+01   .34367E+02  -.10557E+02
   .27854E+01   .34424E+02  -.98971E+01
   .27854E+01   .34361E+02  -.98970E+01
   .27855E+01   .34323E+02  -.98970E+01
   .27855E+01   .34320E+02  -.10377E+02
   .27856E+01   .34370E+02  -.98965E+01
   .27857E+01   .34069E+02  -.98959E+01
   .27858E+01   .33905E+02  -.98955E+01
   .27859E+01   .33756E+02  -.98951E+01
   .27859E+01   .33663E+02  -.98948E+01
   .27860E+01   .33571E+02  -.98946E+01
   .27861E+01   .33438E+02  -.98944E+01
   .27861E+01   .33320E+02  -.10021E+02
   .27861E+01   .33297E+02  -.10149E+02
   .27862E+01   .33312E+02  -.10203E+02
   .27863E+01   .33304E+02  -.10207E+02
   .27863E+01   .33297E+02  -.10211E+02
   .27864E+01   .33231E+02  -.10219E+02
   .27865E+01   .33151E+02  -.10228E+02
   .27867E+01   .32973E+02  -.10247E+02
   .27870E+01   .32683E+02  -.10281E+02
   .27873E+01   .32362E+02  -.10322E+02
   .27875E+01   .32150E+02  -.10352E+02
   .27877E+01   .31916E+02  -.10389E+02
   .27880E+01   .31566E+02  -.10450E+02
   .27882E+01   .31312E+02  -.10498E+02
   .27885E+01   .30933E+02  -.10581E+02
   .27887E+01   .30657E+02  -.10645E+02
   .27890E+01   .30245E+02  -.10755E+02
   .27892E+01   .29951E+02  -.10840E+02
   .27894E+01   .29657E+02  -.10932E+02
   .27896E+01   .29425E+02  -.11008E+02
   .27897E+01   .29193E+02  -.11092E+02
   .27899E+01   .28866E+02  -.11210E+02
   .27901E+01   .28540E+02  -.11343E+02
   .27903E+01   .28196E+02  -.11490E+02
   .27905E+01   .27852E+02  -.11651E+02
   .27906E+01   .27582E+02  -.11783E+02
   .27908E+01   .27312E+02  -.11924E+02
   .27910E+01   .26940E+02  -.12131E+02
   .27912E+01   .26567E+02  -.12358E+02
   .27914E+01   .26178E+02  -.12606E+02
   .27916E+01   .25788E+02  -.12878E+02
   .27917E+01   .25594E+02  -.13021E+02
   .27918E+01   .25399E+02  -.13175E+02
   .27919E+01   .25204E+02  -.13331E+02
   .27920E+01   .25010E+02  -.13500E+02
   .27921E+01   .24812E+02  -.13670E+02
   .27922E+01   .24615E+02  -.13852E+02
   .27923E+01   .24417E+02  -.14038E+02
   .27924E+01   .24220E+02  -.14236E+02
   .27925E+01   .24026E+02  -.14437E+02
   .27926E+01   .23832E+02  -.14651E+02
   .27927E+01   .23638E+02  -.14868E+02
   .27928E+01   .23444E+02  -.15099E+02
   .27929E+01   .23164E+02  -.15459E+02
   .27931E+01   .22883E+02  -.15842E+02
   .27932E+01   .22711E+02  -.16107E+02
   .27933E+01   .22539E+02  -.16376E+02
   .27934E+01   .22367E+02  -.16660E+02
   .27935E+01   .22196E+02  -.16951E+02
   .27936E+01   .22039E+02  -.17253E+02
   .27937E+01   .21882E+02  -.17562E+02
   .27938E+01   .21740E+02  -.17884E+02
   .27939E+01   .21598E+02  -.18212E+02
   .27941E+01   .21344E+02  -.18892E+02
   .27943E+01   .21128E+02  -.19606E+02
   .27945E+01   .20993E+02  -.20162E+02
   .27946E+01   .20882E+02  -.20733E+02
   .27948E+01   .20779E+02  -.21516E+02
   .27950E+01   .20727E+02  -.22323E+02
   .27952E+01   .20727E+02  -.23136E+02
   .27954E+01   .20791E+02  -.23965E+02
   .27956E+01   .20914E+02  -.24795E+02
   .27958E+01   .21097E+02  -.25624E+02
   .27959E+01   .21276E+02  -.26232E+02
   .27961E+01   .21489E+02  -.26836E+02
   .27963E+01   .21822E+02  -.27614E+02
   .27965E+01   .22211E+02  -.28372E+02
   .27967E+01   .22651E+02  -.29084E+02
   .27969E+01   .23138E+02  -.29767E+02
   .27971E+01   .23668E+02  -.30398E+02
   .27973E+01   .24233E+02  -.30982E+02
   .27975E+01   .24682E+02  -.31381E+02
   .27976E+01   .25131E+02  -.31757E+02
   .27978E+01   .25761E+02  -.32207E+02
   .27980E+01   .26392E+02  -.32608E+02
   .27982E+01   .27036E+02  -.32956E+02
   .27984E+01   .27681E+02  -.33254E+02
   .27986E+01   .28321E+02  -.33505E+02
   .27988E+01   .28961E+02  -.33711E+02
   .27989E+01   .29426E+02  -.33829E+02
   .27991E+01   .29891E+02  -.33927E+02
   .27993E+01   .30481E+02  -.34028E+02
   .27995E+01   .31070E+02  -.34096E+02
   .27997E+01   .31622E+02  -.34132E+02
   .27999E+01   .32173E+02  -.34140E+02
   .28001E+01   .32681E+02  -.34121E+02
   .28003E+01   .33188E+02  -.34090E+02
   .28005E+01   .33650E+02  -.34023E+02
   .28007E+01   .34112E+02  -.33957E+02
   .28010E+01   .34745E+02  -.33814E+02
   .28014E+01   .35512E+02  -.33598E+02
   .28018E+01   .36202E+02  -.33355E+02
   .28022E+01   .36819E+02  -.33091E+02
   .28025E+01   .37239E+02  -.32893E+02
   .28029E+01   .37743E+02  -.32626E+02
   .28033E+01   .38194E+02  -.32359E+02
   .28037E+01   .38602E+02  -.32099E+02
   .28040E+01   .38876E+02  -.31904E+02
   .28044E+01   .39211E+02  -.31668E+02
   .28048E+01   .39514E+02  -.31433E+02
   .28052E+01   .39785E+02  -.31219E+02
   .28055E+01   .39979E+02  -.31059E+02
   .28063E+01   .40429E+02  -.30673E+02
   .28070E+01   .40765E+02  -.30377E+02
   .28077E+01   .41063E+02  -.30113E+02
   .28085E+01   .41372E+02  -.29841E+02
   .28092E+01   .41602E+02  -.29642E+02
   .28100E+01   .41854E+02  -.29432E+02
   .28115E+01   .42281E+02  -.29115E+02
   .28130E+01   .42677E+02  -.28855E+02
   .28140E+01   .42920E+02  -.28707E+02
   .28150E+01   .43156E+02  -.28573E+02
   .28180E+01   .43823E+02  -.28217E+02
   .28200E+01   .44231E+02  -.27993E+02
   .28230E+01   .44775E+02  -.27665E+02
   .28250E+01   .45092E+02  -.27445E+02
   .28270E+01   .45372E+02  -.27234E+02
   .28300E+01   .45727E+02  -.26917E+02
   .28315E+01   .45873E+02  -.26770E+02
   .28330E+01   .46006E+02  -.26624E+02
   .28360E+01   .46216E+02  -.26355E+02
   .28390E+01   .46379E+02  -.26113E+02
   .28424E+01   .46503E+02  -.25882E+02
   .28460E+01   .46598E+02  -.25686E+02
   .28490E+01   .46653E+02  -.25553E+02
   .28530E+01   .46694E+02  -.25407E+02
   .28560E+01   .46710E+02  -.25320E+02
   .28600E+01   .46709E+02  -.25222E+02
   .28630E+01   .46709E+02  -.25158E+02
   .28670E+01   .46679E+02  -.25082E+02
   .28700E+01   .46641E+02  -.25026E+02
   .28740E+01   .46562E+02  -.24949E+02
   .28780E+01   .46441E+02  -.24873E+02
   .28820E+01   .46270E+02  -.24796E+02
   .28850E+01   .46101E+02  -.24739E+02
   .28890E+01   .45809E+02  -.24663E+02
   .28905E+01   .45676E+02  -.24634E+02
   .28920E+01   .45525E+02  -.24605E+02
   .28940E+01   .45293E+02  -.24567E+02
   .28960E+01   .45003E+02  -.24529E+02
   .28980E+01   .44546E+02  -.24491E+02
   .28993E+01   .37931E+02  -.24466E+02
   .28994E+01   .44619E+02  -.45871E+02
   .28994E+01   .51308E+02  -.24464E+02
   .29011E+01   .44537E+02  -.24434E+02
   .29027E+01   .43529E+02  -.24405E+02
   .29028E+01   .44085E+02  -.26228E+02
   .29029E+01   .44641E+02  -.24403E+02
   .29044E+01   .43685E+02  -.24375E+02
   .29060E+01   .43213E+02  -.24347E+02
   .29067E+01   .42963E+02  -.24334E+02
   .29075E+01   .42660E+02  -.24320E+02
   .29083E+01   .42286E+02  -.24306E+02
   .29091E+01   .40478E+02  -.24292E+02
   .29091E+01   .41970E+02  -.29199E+02
   .29092E+01   .43438E+02  -.24290E+02
   .29092E+01   .43014E+02  -.24290E+02
   .29092E+01   .42724E+02  -.24289E+02
   .29093E+01   .42538E+02  -.24896E+02
   .29093E+01   .42540E+02  -.24287E+02
   .29098E+01   .41846E+02  -.24280E+02
   .29102E+01   .41016E+02  -.24272E+02
   .29102E+01   .41606E+02  -.26248E+02
   .29103E+01   .42091E+02  -.24270E+02
   .29104E+01   .41750E+02  -.24269E+02
   .29104E+01   .41583E+02  -.24268E+02
   .29105E+01   .41494E+02  -.24350E+02
   .29105E+01   .41399E+02  -.24266E+02
   .29106E+01   .41311E+02  -.24265E+02
   .29106E+01   .41149E+02  -.24265E+02
   .29107E+01   .41347E+02  -.25198E+02
   .29107E+01   .41567E+02  -.24263E+02
   .29108E+01   .41355E+02  -.24262E+02
   .29108E+01   .41190E+02  -.24261E+02
   .29109E+01   .41269E+02  -.24843E+02
   .29109E+01   .41317E+02  -.24259E+02
   .29110E+01   .41242E+02  -.24587E+02
   .29111E+01   .41200E+02  -.24257E+02
   .29111E+01   .41166E+02  -.24257E+02
   .29111E+01   .41169E+02  -.24652E+02
   .29111E+01   .41171E+02  -.24255E+02
   .29112E+01   .41192E+02  -.24255E+02
   .29112E+01   .41196E+02  -.24254E+02
   .29112E+01   .41141E+02  -.24321E+02
   .29113E+01   .41014E+02  -.24253E+02
   .29113E+01   .40961E+02  -.24292E+02
   .29114E+01   .40913E+02  -.24409E+02
   .29114E+01   .40893E+02  -.24468E+02
   .29114E+01   .40873E+02  -.24489E+02
   .29115E+01   .40855E+02  -.24491E+02
   .29115E+01   .40838E+02  -.24492E+02
   .29116E+01   .40810E+02  -.24495E+02
   .29116E+01   .40784E+02  -.24498E+02
   .29117E+01   .40734E+02  -.24504E+02
   .29119E+01   .40613E+02  -.24515E+02
   .29121E+01   .40497E+02  -.24526E+02
   .29125E+01   .40228E+02  -.24558E+02
   .29130E+01   .39861E+02  -.24612E+02
   .29135E+01   .39462E+02  -.24687E+02
   .29140E+01   .39027E+02  -.24788E+02
   .29145E+01   .38555E+02  -.24923E+02
   .29148E+01   .38244E+02  -.25024E+02
   .29150E+01   .38038E+02  -.25101E+02
   .29153E+01   .37705E+02  -.25233E+02
   .29155E+01   .37483E+02  -.25333E+02
   .29157E+01   .37245E+02  -.25443E+02
   .29160E+01   .36889E+02  -.25632E+02
   .29162E+01   .36635E+02  -.25774E+02
   .29165E+01   .36256E+02  -.26015E+02
   .29167E+01   .35991E+02  -.26195E+02
   .29170E+01   .35594E+02  -.26500E+02
   .29173E+01   .35191E+02  -.26849E+02
   .29175E+01   .34923E+02  -.27109E+02
   .29178E+01   .34526E+02  -.27541E+02
   .29180E+01   .34261E+02  -.27860E+02
   .29182E+01   .34014E+02  -.28205E+02
   .29183E+01   .33829E+02  -.28487E+02
   .29185E+01   .33644E+02  -.28772E+02
   .29186E+01   .33478E+02  -.29084E+02
   .29188E+01   .33313E+02  -.29399E+02
   .29190E+01   .33112E+02  -.29853E+02
   .29193E+01   .32859E+02  -.30578E+02
   .29195E+01   .32723E+02  -.31094E+02
   .29197E+01   .32618E+02  -.31631E+02
   .29200E+01   .32529E+02  -.32472E+02
   .29202E+01   .32517E+02  -.33051E+02
   .29205E+01   .32580E+02  -.33939E+02
   .29208E+01   .32742E+02  -.34829E+02
   .29210E+01   .32911E+02  -.35422E+02
   .29213E+01   .33240E+02  -.36282E+02
   .29215E+01   .33519E+02  -.36833E+02
   .29217E+01   .33839E+02  -.37361E+02
   .29220E+01   .34376E+02  -.38098E+02
   .29222E+01   .34783E+02  -.38547E+02
   .29225E+01   .35427E+02  -.39150E+02
   .29227E+01   .35886E+02  -.39503E+02
   .29230E+01   .36595E+02  -.39958E+02
   .29232E+01   .37081E+02  -.40211E+02
   .29234E+01   .37567E+02  -.40424E+02
   .29236E+01   .38047E+02  -.40602E+02
   .29238E+01   .38527E+02  -.40743E+02
   .29239E+01   .38879E+02  -.40828E+02
   .29241E+01   .39230E+02  -.40895E+02
   .29243E+01   .39674E+02  -.40958E+02
   .29245E+01   .40119E+02  -.40996E+02
   .29247E+01   .40534E+02  -.41010E+02
   .29249E+01   .40950E+02  -.41003E+02
   .29253E+01   .41705E+02  -.40935E+02
   .29257E+01   .42393E+02  -.40812E+02
   .29260E+01   .42867E+02  -.40692E+02
   .29262E+01   .43160E+02  -.40599E+02
   .29265E+01   .43570E+02  -.40459E+02
   .29267E+01   .43826E+02  -.40355E+02
   .29270E+01   .44181E+02  -.40199E+02
   .29272E+01   .44403E+02  -.40091E+02
   .29275E+01   .44712E+02  -.39929E+02
   .29280E+01   .45169E+02  -.39658E+02
   .29285E+01   .45571E+02  -.39401E+02
   .29290E+01   .45920E+02  -.39144E+02
   .29295E+01   .46228E+02  -.38914E+02
   .29300E+01   .46501E+02  -.38684E+02
   .29304E+01   .46695E+02  -.38523E+02
   .29308E+01   .46875E+02  -.38362E+02
   .29315E+01   .47155E+02  -.38112E+02
   .29323E+01   .47438E+02  -.37861E+02
   .29330E+01   .47656E+02  -.37667E+02
   .29338E+01   .47885E+02  -.37472E+02
   .29345E+01   .48068E+02  -.37322E+02
   .29360E+01   .48437E+02  -.37050E+02
   .29380E+01   .48886E+02  -.36768E+02
   .29400E+01   .49304E+02  -.36541E+02
   .29410E+01   .49502E+02  -.36442E+02
   .29420E+01   .49701E+02  -.36343E+02
   .29450E+01   .50263E+02  -.36071E+02
   .29480E+01   .50776E+02  -.35810E+02
   .29500E+01   .51088E+02  -.35635E+02
   .29530E+01   .51513E+02  -.35386E+02
   .29550E+01   .51766E+02  -.35220E+02
   .29580E+01   .52110E+02  -.34995E+02
   .29600E+01   .52313E+02  -.34845E+02
   .29630E+01   .52593E+02  -.34657E+02
   .29650E+01   .52761E+02  -.34532E+02
   .29680E+01   .52998E+02  -.34382E+02
   .29700E+01   .53145E+02  -.34282E+02
   .29750E+01   .53493E+02  -.34084E+02
   .29800E+01   .53823E+02  -.33927E+02
   .29850E+01   .54143E+02  -.33798E+02
   .29900E+01   .54463E+02  -.33685E+02
   .29950E+01   .54776E+02  -.33579E+02
   .30000E+01   .55083E+02  -.33473E+02
   .30080E+01   .55552E+02  -.33304E+02
   .30150E+01   .55938E+02  -.33157E+02
   .30230E+01   .56348E+02  -.32995E+02
   .30300E+01   .56687E+02  -.32854E+02
   .30400E+01   .57133E+02  -.32676E+02
   .30500E+01   .57555E+02  -.32497E+02
   .30600E+01   .57955E+02  -.32347E+02
   .30700E+01   .58345E+02  -.32197E+02
   .30800E+01   .58720E+02  -.32042E+02
   .30900E+01   .59074E+02  -.31887E+02
   .31000E+01   .59410E+02  -.31732E+02
   .31100E+01   .59730E+02  -.31577E+02
   .31200E+01   .60033E+02  -.31426E+02
   .31300E+01   .60320E+02  -.31275E+02
   .31390E+01   .60566E+02  -.31139E+02
   .31488E+01   .60822E+02  -.30990E+02
   .31640E+01   .61192E+02  -.30772E+02
   .31800E+01   .61553E+02  -.30541E+02
   .31950E+01   .61866E+02  -.30325E+02
   .32100E+01   .62157E+02  -.30110E+02
   .32250E+01   .62417E+02  -.29898E+02
   .32400E+01   .62648E+02  -.29687E+02
   .32550E+01   .62851E+02  -.29475E+02
   .32700E+01   .63025E+02  -.29264E+02
   .32850E+01   .63166E+02  -.29062E+02
   .32930E+01   .63226E+02  -.28954E+02
   .33000E+01   .63269E+02  -.28860E+02
   .33080E+01   .63306E+02  -.28752E+02
   .33150E+01   .63326E+02  -.28658E+02
   .33220E+01   .63334E+02  -.28564E+02
   .33300E+01   .63325E+02  -.28456E+02
   .33380E+01   .63293E+02  -.28353E+02
   .33450E+01   .63242E+02  -.28263E+02
   .33530E+01   .63150E+02  -.28160E+02
   .33570E+01   .63086E+02  -.28109E+02
   .33600E+01   .63029E+02  -.28070E+02
   .33630E+01   .62962E+02  -.28032E+02
   .33670E+01   .62855E+02  -.27980E+02
   .33700E+01   .62758E+02  -.27942E+02
   .33730E+01   .62644E+02  -.27903E+02
   .33770E+01   .62455E+02  -.27851E+02
   .33800E+01   .62276E+02  -.27813E+02
   .33815E+01   .62171E+02  -.27794E+02
   .33830E+01   .62053E+02  -.27774E+02
   .33850E+01   .61867E+02  -.27749E+02
   .33864E+01   .61670E+02  -.27731E+02
   .33865E+01   .61710E+02  -.27885E+02
   .33865E+01   .61750E+02  -.27729E+02
   .33882E+01   .61487E+02  -.27708E+02
   .33898E+01   .61180E+02  -.27688E+02
   .33899E+01   .61205E+02  -.27808E+02
   .33900E+01   .61230E+02  -.27686E+02
   .33913E+01   .60905E+02  -.27669E+02
   .33919E+01   .60745E+02  -.27661E+02
   .33925E+01   .60541E+02  -.27653E+02
   .33932E+01   .60289E+02  -.27645E+02
   .33939E+01   .59913E+02  -.27636E+02
   .33945E+01   .59351E+02  -.27629E+02
   .33951E+01   .53104E+02  -.27621E+02
   .33952E+01   .59535E+02  -.48307E+02
   .33953E+01   .65963E+02  -.27619E+02
   .33957E+01   .60041E+02  -.27614E+02
   .33960E+01   .59203E+02  -.27610E+02
   .33964E+01   .58102E+02  -.27605E+02
   .33968E+01   .51124E+02  -.27600E+02
   .33969E+01   .57798E+02  -.49701E+02
   .33969E+01   .63339E+02  -.27598E+02
   .33970E+01   .61773E+02  -.33941E+02
   .33971E+01   .62421E+02  -.27597E+02
   .33973E+01   .58830E+02  -.27594E+02
   .33975E+01   .54128E+02  -.27592E+02
   .33975E+01   .58446E+02  -.43513E+02
   .33976E+01   .63137E+02  -.27590E+02
   .33977E+01   .59506E+02  -.27589E+02
   .33978E+01   .56752E+02  -.27588E+02
   .33979E+01   .58868E+02  -.36583E+02
   .33979E+01   .60451E+02  -.27586E+02
   .33980E+01   .59080E+02  -.27585E+02
   .33980E+01   .57294E+02  -.27585E+02
   .33981E+01   .58887E+02  -.36537E+02
   .33981E+01   .60651E+02  -.27583E+02
   .33982E+01   .59623E+02  -.27583E+02
   .33982E+01   .58581E+02  -.27583E+02
   .33982E+01   .58783E+02  -.31561E+02
   .33983E+01   .59194E+02  -.34545E+02
   .33983E+01   .59493E+02  -.31759E+02
   .33983E+01   .59970E+02  -.27581E+02
   .33983E+01   .60248E+02  -.27581E+02
   .33983E+01   .60522E+02  -.27581E+02
   .33984E+01   .59464E+02  -.29861E+02
   .33984E+01   .58493E+02  -.28309E+02
   .33985E+01   .57601E+02  -.29382E+02
   .33985E+01   .57657E+02  -.30328E+02
   .33986E+01   .57901E+02  -.30824E+02
   .33986E+01   .58284E+02  -.30848E+02
   .33986E+01   .58517E+02  -.30879E+02
   .33987E+01   .58624E+02  -.30909E+02
   .33988E+01   .58699E+02  -.30939E+02
   .33988E+01   .58760E+02  -.30970E+02
   .33988E+01   .58811E+02  -.30998E+02
   .33989E+01   .58857E+02  -.31027E+02
   .33990E+01   .58897E+02  -.31056E+02
   .33990E+01   .58932E+02  -.31084E+02
   .33991E+01   .58998E+02  -.31138E+02
   .33992E+01   .59058E+02  -.31192E+02
   .33993E+01   .59116E+02  -.31241E+02
   .33994E+01   .59173E+02  -.31290E+02
   .33996E+01   .59280E+02  -.31388E+02
   .33998E+01   .59384E+02  -.31471E+02
   .34000E+01   .59487E+02  -.31553E+02
   .34002E+01   .59588E+02  -.31621E+02
   .34005E+01   .59735E+02  -.31722E+02
   .34010E+01   .59978E+02  -.31855E+02
   .34015E+01   .60210E+02  -.31956E+02
   .34020E+01   .60431E+02  -.32031E+02
   .34025E+01   .60639E+02  -.32084E+02
   .34030E+01   .60835E+02  -.32119E+02
   .34035E+01   .61013E+02  -.32135E+02
   .34040E+01   .61178E+02  -.32151E+02
   .34045E+01   .61333E+02  -.32149E+02
   .34050E+01   .61475E+02  -.32148E+02
   .34055E+01   .61607E+02  -.32137E+02
   .34060E+01   .61730E+02  -.32126E+02
   .34070E+01   .61949E+02  -.32093E+02
   .34080E+01   .62142E+02  -.32060E+02
   .34090E+01   .62314E+02  -.32022E+02
   .34100E+01   .62470E+02  -.31983E+02
   .34110E+01   .62610E+02  -.31941E+02
   .34120E+01   .62736E+02  -.31899E+02
   .34130E+01   .62849E+02  -.31857E+02
   .34140E+01   .62949E+02  -.31815E+02
   .34160E+01   .63128E+02  -.31749E+02
   .34180E+01   .63280E+02  -.31684E+02
   .34200E+01   .63413E+02  -.31642E+02
   .34220E+01   .63535E+02  -.31599E+02
   .34260E+01   .63757E+02  -.31545E+02
   .34300E+01   .63963E+02  -.31508E+02
   .34350E+01   .64210E+02  -.31475E+02
   .34400E+01   .64452E+02  -.31442E+02
   .34450E+01   .64681E+02  -.31399E+02
   .34500E+01   .64904E+02  -.31357E+02
   .34550E+01   .65115E+02  -.31299E+02
   .34600E+01   .65313E+02  -.31240E+02
   .34650E+01   .65500E+02  -.31173E+02
   .34700E+01   .65673E+02  -.31106E+02
   .34780E+01   .65931E+02  -.31000E+02
   .34850E+01   .66140E+02  -.30908E+02
   .34930E+01   .66362E+02  -.30808E+02
   .35000E+01   .66548E+02  -.30722E+02
   .35100E+01   .66805E+02  -.30600E+02
   .35200E+01   .67048E+02  -.30478E+02
   .35300E+01   .67278E+02  -.30357E+02
   .35400E+01   .67498E+02  -.30235E+02
   .35500E+01   .67708E+02  -.30115E+02
   .35600E+01   .67910E+02  -.29995E+02
   .35700E+01   .68103E+02  -.29875E+02
   .35800E+01   .68287E+02  -.29755E+02
   .36000E+01   .68636E+02  -.29515E+02
   .36200E+01   .68960E+02  -.29275E+02
   .36400E+01   .69263E+02  -.29045E+02
   .36600E+01   .69547E+02  -.28814E+02
   .36760E+01   .69760E+02  -.28630E+02
   .36914E+01   .69955E+02  -.28452E+02
   .37100E+01   .70179E+02  -.28247E+02
   .37300E+01   .70405E+02  -.28027E+02
   .37500E+01   .70615E+02  -.27806E+02
   .37700E+01   .70810E+02  -.27585E+02
   .37850E+01   .70947E+02  -.27427E+02
   .38000E+01   .71076E+02  -.27270E+02
   .38200E+01   .71235E+02  -.27059E+02
   .38400E+01   .71378E+02  -.26849E+02
   .38550E+01   .71475E+02  -.26697E+02
   .38700E+01   .71561E+02  -.26545E+02
   .38800E+01   .71611E+02  -.26443E+02
   .38900E+01   .71655E+02  -.26342E+02
   .39000E+01   .71692E+02  -.26241E+02
   .39100E+01   .71721E+02  -.26139E+02
   .39200E+01   .71740E+02  -.26042E+02
   .39300E+01   .71747E+02  -.25945E+02
   .39400E+01   .71738E+02  -.25849E+02
   .39450E+01   .71726E+02  -.25800E+02
   .39500E+01   .71707E+02  -.25752E+02
   .39550E+01   .71680E+02  -.25703E+02
   .39600E+01   .71643E+02  -.25655E+02
   .39650E+01   .71592E+02  -.25606E+02
   .39700E+01   .71520E+02  -.25558E+02
   .39740E+01   .71442E+02  -.25519E+02
   .39755E+01   .71406E+02  -.25504E+02
   .39770E+01   .71365E+02  -.25490E+02
   .39790E+01   .71299E+02  -.25471E+02
   .39810E+01   .71219E+02  -.25451E+02
   .39830E+01   .71117E+02  -.25432E+02
   .39844E+01   .70998E+02  -.25418E+02
   .39845E+01   .71025E+02  -.25521E+02
   .39845E+01   .71052E+02  -.25417E+02
   .39858E+01   .70915E+02  -.25405E+02
   .39865E+01   .70842E+02  -.25398E+02
   .39871E+01   .70765E+02  -.25392E+02
   .39878E+01   .70661E+02  -.25386E+02
   .39884E+01   .70539E+02  -.25380E+02
   .39891E+01   .70305E+02  -.25374E+02
   .39897E+01   .68733E+02  -.25368E+02
   .39898E+01   .70302E+02  -.30430E+02
   .39899E+01   .71870E+02  -.25366E+02
   .39902E+01   .70456E+02  -.25363E+02
   .39904E+01   .70248E+02  -.25361E+02
   .39906E+01   .70054E+02  -.25360E+02
   .39908E+01   .69851E+02  -.25358E+02
   .39910E+01   .69547E+02  -.25356E+02
   .39912E+01   .68916E+02  -.25354E+02
   .39913E+01   .67118E+02  -.25353E+02
   .39914E+01   .68480E+02  -.29821E+02
   .39914E+01   .69845E+02  -.34290E+02
   .39915E+01   .72346E+02  -.25351E+02
   .39916E+01   .71112E+02  -.25350E+02
   .39916E+01   .70469E+02  -.25350E+02
   .39917E+01   .70108E+02  -.25349E+02
   .39918E+01   .69800E+02  -.25349E+02
   .39918E+01   .69450E+02  -.25348E+02
   .39919E+01   .69087E+02  -.25347E+02
   .39920E+01   .68506E+02  -.25347E+02
   .39920E+01   .67367E+02  -.25554E+02
   .39920E+01   .67669E+02  -.25697E+02
   .39921E+01   .67978E+02  -.25839E+02
   .39921E+01   .68739E+02  -.31243E+02
   .39921E+01   .69595E+02  -.26413E+02
   .39922E+01   .70473E+02  -.26565E+02
   .39922E+01   .70037E+02  -.26574E+02
   .39923E+01   .69774E+02  -.26583E+02
   .39923E+01   .69486E+02  -.26591E+02
   .39923E+01   .69107E+02  -.26600E+02
   .39924E+01   .69381E+02  -.28059E+02
   .39924E+01   .69749E+02  -.29519E+02
   .39925E+01   .70352E+02  -.26635E+02
   .39925E+01   .70061E+02  -.26640E+02
   .39925E+01   .69770E+02  -.26646E+02
   .39926E+01   .70320E+02  -.29550E+02
   .39927E+01   .70824E+02  -.26676E+02
   .39927E+01   .70517E+02  -.26679E+02
   .39927E+01   .70370E+02  -.26683E+02
   .39928E+01   .70866E+02  -.29318E+02
   .39929E+01   .71032E+02  -.26701E+02
   .39929E+01   .71304E+02  -.26706E+02
   .39929E+01   .71511E+02  -.26711E+02
   .39929E+01   .71346E+02  -.26788E+02
   .39930E+01   .71032E+02  -.26730E+02
   .39933E+01   .70727E+02  -.26770E+02
   .39935E+01   .70677E+02  -.26799E+02
   .39937E+01   .70667E+02  -.26821E+02
   .39940E+01   .70682E+02  -.26855E+02
   .39945E+01   .70732E+02  -.26889E+02
   .39950E+01   .70798E+02  -.26923E+02
   .39955E+01   .70867E+02  -.26937E+02
   .39960E+01   .70934E+02  -.26951E+02
   .39965E+01   .70998E+02  -.26952E+02
   .39970E+01   .71057E+02  -.26954E+02
   .39978E+01   .71142E+02  -.26943E+02
   .39985E+01   .71208E+02  -.26934E+02
   .39992E+01   .71263E+02  -.26922E+02
   .39996E+01   .71292E+02  -.26914E+02
   .40000E+01   .71317E+02  -.26907E+02
   .40015E+01   .71406E+02  -.26892E+02
   .40030E+01   .71487E+02  -.26878E+02
   .40040E+01   .71537E+02  -.26868E+02
   .40050E+01   .71583E+02  -.26858E+02
   .40080E+01   .71707E+02  -.26828E+02
   .40100E+01   .71780E+02  -.26809E+02
   .40130E+01   .71879E+02  -.26779E+02
   .40150E+01   .71939E+02  -.26759E+02
   .40180E+01   .72022E+02  -.26730E+02
   .40200E+01   .72073E+02  -.26710E+02
   .40250E+01   .72191E+02  -.26661E+02
   .40300E+01   .72298E+02  -.26612E+02
   .40350E+01   .72394E+02  -.26562E+02
   .40400E+01   .72484E+02  -.26513E+02
   .40450E+01   .72567E+02  -.26465E+02
   .40500E+01   .72646E+02  -.26417E+02
   .40600E+01   .72790E+02  -.26321E+02
   .40730E+01   .72958E+02  -.26197E+02
   .40860E+01   .73109E+02  -.26072E+02
   .40920E+01   .73175E+02  -.26016E+02
   .40980E+01   .73239E+02  -.25959E+02
   .41100E+01   .73354E+02  -.25847E+02
   .41230E+01   .73471E+02  -.25727E+02
   .41353E+01   .73572E+02  -.25613E+02
   .41500E+01   .73680E+02  -.25485E+02
   .41700E+01   .73815E+02  -.25312E+02
   .41800E+01   .73875E+02  -.25225E+02
   .41900E+01   .73929E+02  -.25138E+02
   .42000E+01   .73977E+02  -.25051E+02
   .42100E+01   .74020E+02  -.24964E+02
   .42180E+01   .74047E+02  -.24898E+02
   .42250E+01   .74066E+02  -.24840E+02
   .42330E+01   .74079E+02  -.24773E+02
   .42400E+01   .74083E+02  -.24715E+02
   .42450E+01   .74079E+02  -.24673E+02
   .42500E+01   .74067E+02  -.24632E+02
   .42550E+01   .74046E+02  -.24590E+02
   .42600E+01   .74009E+02  -.24549E+02
   .42640E+01   .73963E+02  -.24515E+02
   .42690E+01   .73860E+02  -.24474E+02
   .42710E+01   .73790E+02  -.24457E+02
   .42730E+01   .73678E+02  -.24441E+02
   .42750E+01   .73449E+02  -.24424E+02
   .42775E+01   .62563E+02  -.24403E+02
   .42776E+01   .73684E+02  -.60756E+02
   .42777E+01   .84805E+02  -.24402E+02
   .42793E+01   .74021E+02  -.24388E+02
   .42810E+01   .66665E+02  -.24375E+02
   .42811E+01   .74040E+02  -.48488E+02
   .42811E+01   .81416E+02  -.24374E+02
   .42819E+01   .74718E+02  -.24367E+02
   .42827E+01   .74248E+02  -.24361E+02
   .42835E+01   .74024E+02  -.24354E+02
   .42842E+01   .73860E+02  -.24348E+02
   .42850E+01   .73696E+02  -.24342E+02
   .42854E+01   .73595E+02  -.24339E+02
   .42858E+01   .73472E+02  -.24336E+02
   .42862E+01   .73307E+02  -.24333E+02
   .42866E+01   .73046E+02  -.24329E+02
   .42870E+01   .72459E+02  -.24326E+02
   .42874E+01   .68210E+02  -.24323E+02
   .42874E+01   .73388E+02  -.40759E+02
   .42875E+01   .78214E+02  -.24322E+02
   .42877E+01   .74748E+02  -.24320E+02
   .42879E+01   .73919E+02  -.24319E+02
   .42880E+01   .73698E+02  -.24416E+02
   .42881E+01   .73509E+02  -.24317E+02
   .42882E+01   .73266E+02  -.24316E+02
   .42883E+01   .72937E+02  -.24316E+02
   .42883E+01   .72474E+02  -.24315E+02
   .42884E+01   .71491E+02  -.24315E+02
   .42885E+01   .72272E+02  -.27261E+02
   .42885E+01   .73038E+02  -.30207E+02
   .42885E+01   .73978E+02  -.26933E+02
   .42886E+01   .74660E+02  -.24313E+02
   .42886E+01   .74475E+02  -.24313E+02
   .42886E+01   .74273E+02  -.24313E+02
   .42887E+01   .73685E+02  -.24409E+02
   .42887E+01   .73211E+02  -.24688E+02
   .42887E+01   .72967E+02  -.24843E+02
   .42888E+01   .72827E+02  -.25052E+02
   .42888E+01   .72687E+02  -.25189E+02
   .42888E+01   .72479E+02  -.25189E+02
   .42889E+01   .72955E+02  -.26740E+02
   .42889E+01   .73345E+02  -.27981E+02
   .42890E+01   .73705E+02  -.26741E+02
   .42890E+01   .74046E+02  -.25191E+02
   .42891E+01   .73652E+02  -.25191E+02
   .42891E+01   .73267E+02  -.25192E+02
   .42892E+01   .73799E+02  -.27673E+02
   .42893E+01   .74326E+02  -.25194E+02
   .42893E+01   .74101E+02  -.25194E+02
   .42893E+01   .73885E+02  -.25194E+02
   .42894E+01   .74251E+02  -.27072E+02
   .42895E+01   .74702E+02  -.25196E+02
   .42896E+01   .74244E+02  -.25197E+02
   .42898E+01   .74116E+02  -.25198E+02
   .42900E+01   .74039E+02  -.25200E+02
   .42902E+01   .74001E+02  -.25202E+02
   .42906E+01   .73967E+02  -.25205E+02
   .42910E+01   .73957E+02  -.25208E+02
   .42915E+01   .73960E+02  -.25212E+02
   .42920E+01   .73969E+02  -.25216E+02
   .42925E+01   .73984E+02  -.25220E+02
   .42930E+01   .73998E+02  -.25225E+02
   .42940E+01   .74032E+02  -.25227E+02
   .42950E+01   .74057E+02  -.25229E+02
   .42960E+01   .74088E+02  -.25231E+02
   .42970E+01   .74119E+02  -.25233E+02
   .42990E+01   .74176E+02  -.25231E+02
   .43010E+01   .74232E+02  -.25229E+02
   .43030E+01   .74283E+02  -.25221E+02
   .43050E+01   .74335E+02  -.25214E+02
   .43070E+01   .74382E+02  -.25202E+02
   .43090E+01   .74425E+02  -.25190E+02
   .43130E+01   .74512E+02  -.25166E+02
   .43160E+01   .74570E+02  -.25142E+02
   .43200E+01   .74642E+02  -.25110E+02
   .43250E+01   .74725E+02  -.25065E+02
   .43300E+01   .74799E+02  -.25021E+02
   .43350E+01   .74867E+02  -.24976E+02
   .43400E+01   .74928E+02  -.24932E+02
   .43500E+01   .75045E+02  -.24851E+02
   .43600E+01   .75153E+02  -.24770E+02
   .43700E+01   .75256E+02  -.24693E+02
   .43800E+01   .75353E+02  -.24615E+02
   .44000E+01   .75539E+02  -.24460E+02
   .44200E+01   .75711E+02  -.24304E+02
   .44400E+01   .75870E+02  -.24148E+02
   .44600E+01   .76020E+02  -.23999E+02
   .44800E+01   .76163E+02  -.23849E+02
   .45000E+01   .76300E+02  -.23700E+02
   .45200E+01   .76432E+02  -.23551E+02
   .45400E+01   .76558E+02  -.23406E+02
   .45600E+01   .76680E+02  -.23262E+02
   .45800E+01   .76797E+02  -.23118E+02
   .46000E+01   .76910E+02  -.22974E+02
   .46300E+01   .77073E+02  -.22767E+02
   .46500E+01   .77177E+02  -.22629E+02
   .46700E+01   .77278E+02  -.22491E+02
   .47000E+01   .77423E+02  -.22284E+02
   .47200E+01   .77517E+02  -.22153E+02
   .47500E+01   .77652E+02  -.21956E+02
   .47800E+01   .77782E+02  -.21760E+02
   .48000E+01   .77867E+02  -.21629E+02
   .48300E+01   .77989E+02  -.21440E+02
   .48500E+01   .78067E+02  -.21315E+02
   .48800E+01   .78181E+02  -.21126E+02
   .49000E+01   .78254E+02  -.21000E+02
   .49500E+01   .78430E+02  -.20702E+02
   .50000E+01   .78596E+02  -.20403E+02
   .50200E+01   .78660E+02  -.20286E+02
   .50500E+01   .78753E+02  -.20112E+02
   .51000E+01   .78899E+02  -.19828E+02
   .51500E+01   .79036E+02  -.19554E+02
   .52000E+01   .79166E+02  -.19280E+02
   .52600E+01   .79312E+02  -.18967E+02
   .53100E+01   .79428E+02  -.18706E+02
   .53600E+01   .79536E+02  -.18455E+02
   .54147E+01   .79648E+02  -.18182E+02
   .54500E+01   .79716E+02  -.18012E+02
   .54900E+01   .79791E+02  -.17820E+02
   .55200E+01   .79845E+02  -.17680E+02
   .55600E+01   .79914E+02  -.17493E+02
   .55900E+01   .79964E+02  -.17356E+02
   .56300E+01   .80028E+02  -.17175E+02
   .56600E+01   .80073E+02  -.17043E+02
   .57000E+01   .80132E+02  -.16867E+02
   .57800E+01   .80243E+02  -.16526E+02
   .58100E+01   .80284E+02  -.16401E+02
   .58500E+01   .80334E+02  -.16234E+02
   .58800E+01   .80370E+02  -.16112E+02
   .59200E+01   .80417E+02  -.15950E+02
   .60000E+01   .80504E+02  -.15635E+02
   .60500E+01   .80554E+02  -.15443E+02
   .61000E+01   .80601E+02  -.15251E+02
   .61500E+01   .80644E+02  -.15066E+02
   .62000E+01   .80683E+02  -.14881E+02
   .62500E+01   .80720E+02  -.14704E+02
   .63000E+01   .80754E+02  -.14527E+02
   .63500E+01   .80786E+02  -.14357E+02
   .64038E+01   .80818E+02  -.14175E+02
   .64800E+01   .80859E+02  -.13925E+02
   .65500E+01   .80892E+02  -.13703E+02
   .66300E+01   .80927E+02  -.13458E+02
   .67000E+01   .80955E+02  -.13248E+02
   .67800E+01   .80983E+02  -.13019E+02
   .68500E+01   .81005E+02  -.12818E+02
   .69200E+01   .81025E+02  -.12625E+02
   .69600E+01   .81036E+02  -.12517E+02
   .70000E+01   .81047E+02  -.12410E+02
   .70700E+01   .81063E+02  -.12227E+02
   .71500E+01   .81078E+02  -.12017E+02
   .72200E+01   .81088E+02  -.11843E+02
   .73000E+01   .81097E+02  -.11644E+02
   .74000E+01   .81105E+02  -.11406E+02
   .75000E+01   .81110E+02  -.11176E+02
   .75700E+01   .81112E+02  -.11019E+02
   .76500E+01   .81111E+02  -.10840E+02
   .77200E+01   .81107E+02  -.10691E+02
   .78000E+01   .81102E+02  -.10521E+02
   .79000E+01   .81092E+02  -.10316E+02
   .80000E+01   .81080E+02  -.10118E+02
   .80200E+01   .81077E+02  -.10080E+02
   .80478E+01   .81073E+02  -.10026E+02
   .81700E+01   .81053E+02  -.97959E+01
   .83000E+01   .81028E+02  -.95605E+01
   .84000E+01   .81006E+02  -.93858E+01
   .85000E+01   .80982E+02  -.92162E+01
   .86500E+01   .80944E+02  -.89712E+01
   .88000E+01   .80902E+02  -.87367E+01
   .89000E+01   .80872E+02  -.85860E+01
   .90000E+01   .80842E+02  -.84395E+01
   .90600E+01   .80823E+02  -.83525E+01
   .91200E+01   .80803E+02  -.82670E+01
   .92458E+01   .80759E+02  -.80923E+01
   .94000E+01   .80702E+02  -.78865E+01
   .96000E+01   .80623E+02  -.76309E+01
   .98000E+01   .80538E+02  -.73878E+01
   .99000E+01   .80494E+02  -.72709E+01
   .10000E+02   .80448E+02  -.71571E+01
   .10150E+02   .80376E+02  -.69910E+01
   .10300E+02   .80300E+02  -.68312E+01
   .10450E+02   .80221E+02  -.66772E+01
   .10600E+02   .80139E+02  -.65288E+01
   .10750E+02   .80053E+02  -.63857E+01
   .10900E+02   .79963E+02  -.62477E+01
   .11100E+02   .79838E+02  -.60705E+01
   .11160E+02   .79799E+02  -.60191E+01
   .11220E+02   .79758E+02  -.59678E+01
   .11400E+02   .79633E+02  -.58188E+01
   .11500E+02   .79560E+02  -.57396E+01
   .11600E+02   .79485E+02  -.56603E+01
   .11700E+02   .79407E+02  -.55846E+01
   .11800E+02   .79326E+02  -.55088E+01
   .11900E+02   .79241E+02  -.54362E+01
   .12000E+02   .79154E+02  -.53637E+01
   .12070E+02   .79091E+02  -.53145E+01
   .12150E+02   .79016E+02  -.52582E+01
   .12220E+02   .78948E+02  -.52105E+01
   .12300E+02   .78867E+02  -.51560E+01
   .12400E+02   .78762E+02  -.50903E+01
   .12500E+02   .78651E+02  -.50247E+01
   .12600E+02   .78535E+02  -.49617E+01
   .12700E+02   .78411E+02  -.48987E+01
   .12800E+02   .78279E+02  -.48383E+01
   .12900E+02   .78138E+02  -.47778E+01
   .13000E+02   .77986E+02  -.47197E+01
   .13050E+02   .77906E+02  -.46907E+01
   .13100E+02   .77822E+02  -.46617E+01
   .13150E+02   .77735E+02  -.46337E+01
   .13200E+02   .77644E+02  -.46057E+01
   .13250E+02   .77548E+02  -.45777E+01
   .13300E+02   .77447E+02  -.45497E+01
   .13350E+02   .77341E+02  -.45227E+01
   .13400E+02   .77229E+02  -.44958E+01
   .13450E+02   .77109E+02  -.44689E+01
   .13500E+02   .76982E+02  -.44419E+01
   .13550E+02   .76846E+02  -.44160E+01
   .13600E+02   .76700E+02  -.43901E+01
   .13650E+02   .76541E+02  -.43642E+01
   .13670E+02   .76473E+02  -.43538E+01
   .13700E+02   .76368E+02  -.43383E+01
   .13720E+02   .76294E+02  -.43283E+01
   .13750E+02   .76177E+02  -.43133E+01
   .13770E+02   .76095E+02  -.43034E+01
   .13800E+02   .75965E+02  -.42884E+01
   .13820E+02   .75872E+02  -.42784E+01
   .13850E+02   .75725E+02  -.42635E+01
   .13880E+02   .75565E+02  -.42485E+01
   .13900E+02   .75450E+02  -.42385E+01
   .13915E+02   .75359E+02  -.42313E+01
   .13930E+02   .75264E+02  -.42240E+01
   .13950E+02   .75128E+02  -.42144E+01
   .13970E+02   .74981E+02  -.42047E+01
   .13990E+02   .74822E+02  -.41950E+01
   .14010E+02   .74648E+02  -.41854E+01
   .14020E+02   .74555E+02  -.41806E+01
   .14030E+02   .74456E+02  -.41757E+01
   .14040E+02   .74352E+02  -.41709E+01
   .14050E+02   .74242E+02  -.41661E+01
   .14060E+02   .74125E+02  -.41614E+01
   .14070E+02   .74000E+02  -.41567E+01
   .14080E+02   .73866E+02  -.41520E+01
   .14090E+02   .73721E+02  -.41473E+01
   .14100E+02   .73564E+02  -.41426E+01
   .14110E+02   .73393E+02  -.41379E+01
   .14120E+02   .73204E+02  -.41332E+01
   .14125E+02   .73102E+02  -.41309E+01
   .14130E+02   .72994E+02  -.41285E+01
   .14135E+02   .72879E+02  -.41262E+01
   .14140E+02   .72757E+02  -.41238E+01
   .14145E+02   .72626E+02  -.41215E+01
   .14150E+02   .72485E+02  -.41192E+01
   .14155E+02   .72333E+02  -.41168E+01
   .14160E+02   .72167E+02  -.41144E+01
   .14165E+02   .71985E+02  -.41121E+01
   .14170E+02   .71783E+02  -.41098E+01
   .14173E+02   .71650E+02  -.41083E+01
   .14175E+02   .71556E+02  -.41074E+01
   .14178E+02   .71406E+02  -.41060E+01
   .14180E+02   .71298E+02  -.41051E+01
   .14183E+02   .71124E+02  -.41037E+01
   .14185E+02   .70999E+02  -.41027E+01
   .14188E+02   .70793E+02  -.41013E+01
   .14190E+02   .70642E+02  -.41004E+01
   .14191E+02   .70520E+02  -.40997E+01
   .14193E+02   .70389E+02  -.40990E+01
   .14194E+02   .70249E+02  -.40982E+01
   .14196E+02   .70097E+02  -.40975E+01
   .14198E+02   .69932E+02  -.40968E+01
   .14199E+02   .69750E+02  -.40961E+01
   .14201E+02   .69474E+02  -.40952E+01
   .14202E+02   .69271E+02  -.40946E+01
   .14202E+02   .69263E+02  -.41151E+01
   .14202E+02   .69258E+02  -.41356E+01
   .14203E+02   .69242E+02  -.41561E+01
   .14203E+02   .69212E+02  -.40944E+01
   .14203E+02   .69072E+02  -.40940E+01
   .14204E+02   .68935E+02  -.40937E+01
   .14205E+02   .68787E+02  -.40934E+01
   .14206E+02   .68615E+02  -.40931E+01
   .14206E+02   .68563E+02  -.41492E+01
   .14206E+02   .68508E+02  -.40928E+01
   .14207E+02   .68334E+02  -.40925E+01
   .14207E+02   .68155E+02  -.40922E+01
   .14208E+02   .67958E+02  -.40920E+01
   .14209E+02   .67734E+02  -.40917E+01
   .14209E+02   .67473E+02  -.40914E+01
   .14210E+02   .67156E+02  -.40911E+01
   .14210E+02   .66726E+02  -.40908E+01
   .14211E+02   .65803E+02  -.40906E+01
   .14211E+02   .66131E+02  -.57363E+01
   .14211E+02   .66295E+02  -.65592E+01
   .14212E+02   .66730E+02  -.40903E+01
   .14212E+02   .66160E+02  -.40902E+01
   .14212E+02   .65462E+02  -.40901E+01
   .14212E+02   .64499E+02  -.40899E+01
   .14213E+02   .63200E+02  -.40898E+01
   .14213E+02   .64364E+02  -.97822E+01
   .14213E+02   .65082E+02  -.12628E+02
   .14213E+02   .66995E+02  -.40896E+01
   .14213E+02   .65823E+02  -.40895E+01
   .14214E+02   .63651E+02  -.40894E+01
   .14214E+02   .65788E+02  -.13616E+02
   .14214E+02   .66967E+02  -.40892E+01
   .14214E+02   .67580E+02  -.40892E+01
   .14214E+02   .66761E+02  -.76696E+01
   .14215E+02   .66043E+02  -.40889E+01
   .14215E+02   .65088E+02  -.40889E+01
   .14215E+02   .63692E+02  -.52277E+01
   .14215E+02   .63093E+02  -.66781E+01
   .14215E+02   .63374E+02  -.85407E+01
   .14215E+02   .64011E+02  -.86985E+01
   .14216E+02   .64592E+02  -.88546E+01
   .14216E+02   .64816E+02  -.89688E+01
   .14216E+02   .64967E+02  -.90732E+01
   .14216E+02   .65165E+02  -.92131E+01
   .14217E+02   .65434E+02  -.93954E+01
   .14217E+02   .65597E+02  -.95073E+01
   .14217E+02   .65676E+02  -.95825E+01
   .14217E+02   .65838E+02  -.96589E+01
   .14217E+02   .65911E+02  -.96988E+01
   .14217E+02   .65985E+02  -.97392E+01
   .14217E+02   .66129E+02  -.98004E+01
   .14217E+02   .66203E+02  -.98616E+01
   .14218E+02   .66271E+02  -.99082E+01
   .14218E+02   .66410E+02  -.99551E+01
   .14218E+02   .66543E+02  -.10018E+02
   .14218E+02   .66670E+02  -.10065E+02
   .14218E+02   .66799E+02  -.10113E+02
   .14219E+02   .67040E+02  -.10188E+02
   .14219E+02   .67210E+02  -.10235E+02
   .14219E+02   .67426E+02  -.10281E+02
   .14220E+02   .67629E+02  -.10315E+02
   .14220E+02   .67820E+02  -.10336E+02
   .14221E+02   .67996E+02  -.10348E+02
   .14221E+02   .68120E+02  -.10352E+02
   .14221E+02   .68275E+02  -.10352E+02
   .14222E+02   .68422E+02  -.10351E+02
   .14222E+02   .68525E+02  -.10345E+02
   .14222E+02   .68654E+02  -.10337E+02
   .14223E+02   .68776E+02  -.10325E+02
   .14223E+02   .68890E+02  -.10312E+02
   .14224E+02   .69074E+02  -.10286E+02
   .14225E+02   .69261E+02  -.10254E+02
   .14226E+02   .69411E+02  -.10226E+02
   .14226E+02   .69566E+02  -.10191E+02
   .14227E+02   .69690E+02  -.10160E+02
   .14228E+02   .69849E+02  -.10115E+02
   .14229E+02   .69989E+02  -.10070E+02
   .14230E+02   .70110E+02  -.10030E+02
   .14231E+02   .70219E+02  -.99903E+01
   .14232E+02   .70297E+02  -.99650E+01
   .14233E+02   .70360E+02  -.99430E+01
   .14234E+02   .70482E+02  -.99060E+01
   .14236E+02   .70589E+02  -.98789E+01
   .14237E+02   .70686E+02  -.98603E+01
   .14238E+02   .70775E+02  -.98492E+01
   .14240E+02   .70858E+02  -.98443E+01
   .14241E+02   .70936E+02  -.98446E+01
   .14243E+02   .71013E+02  -.98491E+01
   .14245E+02   .71112E+02  -.98600E+01
   .14248E+02   .71255E+02  -.98834E+01
   .14250E+02   .71350E+02  -.99014E+01
   .14255E+02   .71581E+02  -.99472E+01
   .14260E+02   .71805E+02  -.99854E+01
   .14265E+02   .72019E+02  -.10011E+02
   .14270E+02   .72220E+02  -.10023E+02
   .14275E+02   .72404E+02  -.10024E+02
   .14278E+02   .72506E+02  -.10020E+02
   .14280E+02   .72571E+02  -.10017E+02
   .14284E+02   .72693E+02  -.10008E+02
   .14288E+02   .72805E+02  -.99990E+01
   .14292E+02   .72908E+02  -.99899E+01
   .14295E+02   .72980E+02  -.99830E+01
   .14303E+02   .73159E+02  -.99729E+01
   .14310E+02   .73301E+02  -.99641E+01
   .14315E+02   .73395E+02  -.99633E+01
   .14320E+02   .73487E+02  -.99625E+01
   .14330E+02   .73664E+02  -.99634E+01
   .14338E+02   .73798E+02  -.99581E+01
   .14345E+02   .73908E+02  -.99534E+01
   .14352E+02   .74012E+02  -.99488E+01
   .14360E+02   .74128E+02  -.99434E+01
   .14370E+02   .74264E+02  -.99285E+01
   .14380E+02   .74386E+02  -.99137E+01
   .14390E+02   .74500E+02  -.99005E+01
   .14400E+02   .74606E+02  -.98874E+01
   .14415E+02   .74754E+02  -.98738E+01
   .14430E+02   .74895E+02  -.98602E+01
   .14440E+02   .74984E+02  -.98511E+01
   .14450E+02   .75070E+02  -.98420E+01
   .14460E+02   .75153E+02  -.98300E+01
   .14470E+02   .75231E+02  -.98180E+01
   .14485E+02   .75342E+02  -.98000E+01
   .14500E+02   .75446E+02  -.97820E+01
   .14520E+02   .75576E+02  -.97602E+01
   .14550E+02   .75755E+02  -.97276E+01
   .14570E+02   .75865E+02  -.97058E+01
   .14600E+02   .76019E+02  -.96732E+01
   .14630E+02   .76160E+02  -.96417E+01
   .14650E+02   .76248E+02  -.96207E+01
   .14670E+02   .76332E+02  -.95997E+01
   .14700E+02   .76451E+02  -.95681E+01
   .14720E+02   .76525E+02  -.95471E+01
   .14750E+02   .76631E+02  -.95156E+01
   .14780E+02   .76731E+02  -.94841E+01
   .14800E+02   .76794E+02  -.94630E+01
   .14820E+02   .76855E+02  -.94416E+01
   .14850E+02   .76942E+02  -.94094E+01
   .14870E+02   .76996E+02  -.93879E+01
   .14900E+02   .77074E+02  -.93557E+01
   .14950E+02   .77194E+02  -.93020E+01
   .15000E+02   .77303E+02  -.92483E+01
   .15030E+02   .77364E+02  -.92178E+01
   .15070E+02   .77440E+02  -.91772E+01
   .15110E+02   .77511E+02  -.91365E+01
   .15150E+02   .77576E+02  -.90959E+01
   .15180E+02   .77623E+02  -.90654E+01
   .15220E+02   .77681E+02  -.90248E+01
   .15260E+02   .77735E+02  -.89841E+01
   .15300E+02   .77785E+02  -.89435E+01
   .15360E+02   .77853E+02  -.88847E+01
   .15410E+02   .77903E+02  -.88357E+01
   .15470E+02   .77957E+02  -.87783E+01
   .15500E+02   .77981E+02  -.87496E+01
   .15524E+02   .77998E+02  -.87268E+01
   .15570E+02   .78030E+02  -.86848E+01
   .15610E+02   .78054E+02  -.86485E+01
   .15650E+02   .78076E+02  -.86122E+01
   .15700E+02   .78098E+02  -.85668E+01
   .15750E+02   .78116E+02  -.85214E+01
   .15800E+02   .78130E+02  -.84760E+01
   .15850E+02   .78139E+02  -.84305E+01
   .15900E+02   .78144E+02  -.83851E+01
   .15930E+02   .78145E+02  -.83585E+01
   .15970E+02   .78142E+02  -.83229E+01
   .16010E+02   .78136E+02  -.82873E+01
   .16050E+02   .78126E+02  -.82517E+01
   .16090E+02   .78112E+02  -.82161E+01
   .16130E+02   .78093E+02  -.81805E+01
   .16160E+02   .78077E+02  -.81538E+01
   .16200E+02   .78051E+02  -.81182E+01
   .16240E+02   .78019E+02  -.80844E+01
   .16280E+02   .77983E+02  -.80505E+01
   .16310E+02   .77951E+02  -.80251E+01
   .16350E+02   .77903E+02  -.79912E+01
   .16390E+02   .77847E+02  -.79574E+01
   .16430E+02   .77782E+02  -.79235E+01
   .16470E+02   .77707E+02  -.78896E+01
   .16485E+02   .77676E+02  -.78769E+01
   .16500E+02   .77642E+02  -.78642E+01
   .16520E+02   .77595E+02  -.78481E+01
   .16550E+02   .77516E+02  -.78239E+01
   .16570E+02   .77457E+02  -.78078E+01
   .16585E+02   .77409E+02  -.77958E+01
   .16600E+02   .77358E+02  -.77837E+01
   .16615E+02   .77303E+02  -.77716E+01
   .16630E+02   .77243E+02  -.77595E+01
   .16640E+02   .77200E+02  -.77515E+01
   .16650E+02   .77155E+02  -.77434E+01
   .16665E+02   .77082E+02  -.77313E+01
   .16680E+02   .77002E+02  -.77193E+01
   .16690E+02   .76944E+02  -.77112E+01
   .16700E+02   .76882E+02  -.77031E+01
   .16710E+02   .76814E+02  -.76951E+01
   .16720E+02   .76741E+02  -.76870E+01
   .16730E+02   .76661E+02  -.76790E+01
   .16740E+02   .76572E+02  -.76709E+01
   .16748E+02   .76495E+02  -.76645E+01
   .16755E+02   .76421E+02  -.76589E+01
   .16763E+02   .76329E+02  -.76524E+01
   .16770E+02   .76239E+02  -.76468E+01
   .16778E+02   .76125E+02  -.76403E+01
   .16785E+02   .76012E+02  -.76347E+01
   .16789E+02   .75940E+02  -.76315E+01
   .16792E+02   .75883E+02  -.76291E+01
   .16796E+02   .75800E+02  -.76258E+01
   .16800E+02   .75710E+02  -.76226E+01
   .16802E+02   .75661E+02  -.76210E+01
   .16805E+02   .75583E+02  -.76186E+01
   .16808E+02   .75497E+02  -.76162E+01
   .16810E+02   .75436E+02  -.76146E+01
   .16813E+02   .75335E+02  -.76122E+01
   .16815E+02   .75261E+02  -.76105E+01
   .16818E+02   .75139E+02  -.76081E+01
   .16820E+02   .75048E+02  -.76065E+01
   .16822E+02   .74973E+02  -.76053E+01
   .16823E+02   .74892E+02  -.76041E+01
   .16824E+02   .74803E+02  -.76029E+01
   .16826E+02   .74706E+02  -.76017E+01
   .16827E+02   .74597E+02  -.76005E+01
   .16828E+02   .74541E+02  -.75999E+01
   .16829E+02   .74474E+02  -.75993E+01
   .16830E+02   .74382E+02  -.75985E+01
   .16831E+02   .74280E+02  -.75977E+01
   .16832E+02   .74165E+02  -.75968E+01
   .16833E+02   .74031E+02  -.75960E+01
   .16833E+02   .74018E+02  -.76138E+01
   .16833E+02   .74000E+02  -.76492E+01
   .16834E+02   .73966E+02  -.75955E+01
   .16834E+02   .73868E+02  -.75950E+01
   .16835E+02   .73761E+02  -.75946E+01
   .16835E+02   .73643E+02  -.75941E+01
   .16836E+02   .73509E+02  -.75937E+01
   .16837E+02   .73353E+02  -.75932E+01
   .16837E+02   .73164E+02  -.75927E+01
   .16837E+02   .73053E+02  -.75925E+01
   .16838E+02   .72923E+02  -.75923E+01
   .16838E+02   .72760E+02  -.75920E+01
   .16838E+02   .72567E+02  -.75918E+01
   .16838E+02   .72551E+02  -.77755E+01
   .16839E+02   .72534E+02  -.81428E+01
   .16839E+02   .72458E+02  -.75913E+01
   .16839E+02   .72137E+02  -.75911E+01
   .16840E+02   .71865E+02  -.75909E+01
   .16840E+02   .71509E+02  -.75908E+01
   .16840E+02   .70820E+02  -.75906E+01
   .16840E+02   .71008E+02  -.88536E+01
   .16840E+02   .71383E+02  -.11380E+02
   .16841E+02   .71433E+02  -.75900E+01
   .16841E+02   .70649E+02  -.10532E+02
   .16841E+02   .70274E+02  -.86708E+01
   .16841E+02   .70596E+02  -.89723E+01
   .16841E+02   .71156E+02  -.92843E+01
   .16841E+02   .71647E+02  -.99317E+01
   .16842E+02   .72198E+02  -.10137E+02
   .16842E+02   .73129E+02  -.10592E+02
   .16842E+02   .72989E+02  -.10335E+02
   .16842E+02   .72893E+02  -.10391E+02
   .16843E+02   .72880E+02  -.10448E+02
   .16843E+02   .72903E+02  -.10507E+02
   .16843E+02   .72942E+02  -.10559E+02
   .16843E+02   .72991E+02  -.10591E+02
   .16843E+02   .73021E+02  -.10622E+02
   .16844E+02   .73138E+02  -.10695E+02
   .16844E+02   .73232E+02  -.10741E+02
   .16844E+02   .73359E+02  -.10785E+02
   .16845E+02   .73480E+02  -.10816E+02
   .16845E+02   .73569E+02  -.10834E+02
   .16845E+02   .73652E+02  -.10844E+02
   .16846E+02   .73706E+02  -.10851E+02
   .16846E+02   .73833E+02  -.10857E+02
   .16847E+02   .73949E+02  -.10854E+02
   .16847E+02   .74055E+02  -.10847E+02
   .16847E+02   .74151E+02  -.10835E+02
   .16848E+02   .74239E+02  -.10823E+02
   .16848E+02   .74319E+02  -.10807E+02
   .16849E+02   .74393E+02  -.10791E+02
   .16850E+02   .74459E+02  -.10774E+02
   .16850E+02   .74521E+02  -.10758E+02
   .16851E+02   .74578E+02  -.10741E+02
   .16851E+02   .74631E+02  -.10725E+02
   .16852E+02   .74708E+02  -.10701E+02
   .16853E+02   .74770E+02  -.10679E+02
   .16853E+02   .74827E+02  -.10658E+02
   .16854E+02   .74884E+02  -.10634E+02
   .16855E+02   .74948E+02  -.10609E+02
   .16856E+02   .75004E+02  -.10583E+02
   .16857E+02   .75053E+02  -.10563E+02
   .16858E+02   .75097E+02  -.10544E+02
   .16859E+02   .75136E+02  -.10530E+02
   .16860E+02   .75172E+02  -.10516E+02
   .16863E+02   .75268E+02  -.10493E+02
   .16865E+02   .75322E+02  -.10487E+02
   .16868E+02   .75399E+02  -.10488E+02
   .16870E+02   .75447E+02  -.10493E+02
   .16875E+02   .75568E+02  -.10514E+02
   .16880E+02   .75685E+02  -.10538E+02
   .16885E+02   .75800E+02  -.10557E+02
   .16890E+02   .75910E+02  -.10568E+02
   .16895E+02   .76013E+02  -.10573E+02
   .16900E+02   .76108E+02  -.10571E+02
   .16905E+02   .76193E+02  -.10564E+02
   .16910E+02   .76269E+02  -.10557E+02
   .16915E+02   .76338E+02  -.10549E+02
   .16920E+02   .76399E+02  -.10541E+02
   .16925E+02   .76456E+02  -.10537E+02
   .16930E+02   .76511E+02  -.10533E+02
   .16940E+02   .76611E+02  -.10525E+02
   .16950E+02   .76702E+02  -.10521E+02
   .16960E+02   .76790E+02  -.10518E+02
   .16970E+02   .76872E+02  -.10508E+02
   .16980E+02   .76946E+02  -.10498E+02
   .16990E+02   .77013E+02  -.10488E+02
   .17000E+02   .77076E+02  -.10478E+02
   .17010E+02   .77135E+02  -.10469E+02
   .17020E+02   .77189E+02  -.10459E+02
   .17040E+02   .77289E+02  -.10439E+02
   .17060E+02   .77377E+02  -.10420E+02
   .17080E+02   .77456E+02  -.10401E+02
   .17100E+02   .77527E+02  -.10381E+02
   .17120E+02   .77591E+02  -.10361E+02
   .17140E+02   .77647E+02  -.10341E+02
   .17159E+02   .77694E+02  -.10322E+02
   .17174E+02   .77729E+02  -.10307E+02
   .17190E+02   .77760E+02  -.10292E+02
   .17210E+02   .77795E+02  -.10273E+02
   .17230E+02   .77824E+02  -.10253E+02
   .17250E+02   .77848E+02  -.10234E+02
   .17270E+02   .77865E+02  -.10214E+02
   .17285E+02   .77875E+02  -.10200E+02
   .17300E+02   .77878E+02  -.10185E+02
   .17315E+02   .77877E+02  -.10171E+02
   .17330E+02   .77872E+02  -.10157E+02
   .17340E+02   .77865E+02  -.10148E+02
   .17350E+02   .77856E+02  -.10138E+02
   .17360E+02   .77843E+02  -.10129E+02
   .17370E+02   .77826E+02  -.10119E+02
   .17380E+02   .77804E+02  -.10110E+02
   .17390E+02   .77778E+02  -.10100E+02
   .17400E+02   .77744E+02  -.10091E+02
   .17410E+02   .77703E+02  -.10082E+02
   .17420E+02   .77651E+02  -.10072E+02
   .17425E+02   .77619E+02  -.10068E+02
   .17430E+02   .77584E+02  -.10063E+02
   .17435E+02   .77543E+02  -.10058E+02
   .17440E+02   .77496E+02  -.10053E+02
   .17445E+02   .77440E+02  -.10049E+02
   .17450E+02   .77373E+02  -.10044E+02
   .17453E+02   .77325E+02  -.10041E+02
   .17457E+02   .77250E+02  -.10037E+02
   .17460E+02   .77181E+02  -.10035E+02
   .17463E+02   .77096E+02  -.10032E+02
   .17466E+02   .76986E+02  -.10029E+02
   .17469E+02   .76829E+02  -.10026E+02
   .17471E+02   .76714E+02  -.10025E+02
   .17472E+02   .76547E+02  -.10023E+02
   .17474E+02   .76056E+02  -.10021E+02
   .17475E+02   .73570E+02  -.10020E+02
   .17476E+02   .74593E+02  -.15407E+02
   .17476E+02   .76521E+02  -.20795E+02
   .17476E+02   .79461E+02  -.10019E+02
   .17478E+02   .76786E+02  -.10018E+02
   .17479E+02   .74138E+02  -.10017E+02
   .17479E+02   .75127E+02  -.10017E+02
   .17479E+02   .77004E+02  -.20561E+02
   .17480E+02   .79877E+02  -.10016E+02
   .17480E+02   .77887E+02  -.10016E+02
   .17481E+02   .77358E+02  -.10015E+02
   .17482E+02   .77055E+02  -.10014E+02
   .17482E+02   .76815E+02  -.10014E+02
   .17483E+02   .76581E+02  -.10013E+02
   .17483E+02   .76471E+02  -.10013E+02
   .17484E+02   .76303E+02  -.10012E+02
   .17484E+02   .76149E+02  -.10012E+02
   .17485E+02   .75873E+02  -.10012E+02
   .17485E+02   .75403E+02  -.10011E+02
   .17485E+02   .74399E+02  -.10011E+02
   .17485E+02   .74895E+02  -.12037E+02
   .17486E+02   .75880E+02  -.16088E+02
   .17486E+02   .77516E+02  -.10010E+02
   .17486E+02   .76323E+02  -.10010E+02
   .17487E+02   .75131E+02  -.10010E+02
   .17487E+02   .75726E+02  -.14519E+02
   .17487E+02   .76612E+02  -.10820E+02
   .17487E+02   .77003E+02  -.10978E+02
   .17487E+02   .76799E+02  -.11789E+02
   .17488E+02   .76895E+02  -.11352E+02
   .17488E+02   .76831E+02  -.11357E+02
   .17488E+02   .76802E+02  -.11363E+02
   .17489E+02   .76788E+02  -.11368E+02
   .17489E+02   .76783E+02  -.11373E+02
   .17489E+02   .76783E+02  -.11378E+02
   .17489E+02   .76787E+02  -.11384E+02
   .17489E+02   .76792E+02  -.11389E+02
   .17490E+02   .76798E+02  -.11394E+02
   .17490E+02   .76812E+02  -.11403E+02
   .17490E+02   .76828E+02  -.11411E+02
   .17491E+02   .76845E+02  -.11419E+02
   .17491E+02   .76859E+02  -.11425E+02
   .17492E+02   .76894E+02  -.11437E+02
   .17493E+02   .76925E+02  -.11448E+02
   .17493E+02   .76958E+02  -.11458E+02
   .17494E+02   .76987E+02  -.11467E+02
   .17495E+02   .77018E+02  -.11476E+02
   .17496E+02   .77043E+02  -.11483E+02
   .17497E+02   .77097E+02  -.11499E+02
   .17499E+02   .77147E+02  -.11511E+02
   .17500E+02   .77195E+02  -.11523E+02
   .17503E+02   .77283E+02  -.11538E+02
   .17505E+02   .77339E+02  -.11548E+02
   .17508E+02   .77415E+02  -.11555E+02
   .17510E+02   .77463E+02  -.11559E+02
   .17513E+02   .77529E+02  -.11559E+02
   .17515E+02   .77570E+02  -.11558E+02
   .17518E+02   .77627E+02  -.11554E+02
   .17520E+02   .77662E+02  -.11551E+02
   .17523E+02   .77711E+02  -.11545E+02
   .17525E+02   .77741E+02  -.11540E+02
   .17528E+02   .77782E+02  -.11534E+02
   .17530E+02   .77808E+02  -.11529E+02
   .17535E+02   .77867E+02  -.11519E+02
   .17540E+02   .77918E+02  -.11510E+02
   .17545E+02   .77967E+02  -.11505E+02
   .17550E+02   .78014E+02  -.11500E+02
   .17560E+02   .78100E+02  -.11489E+02
   .17570E+02   .78176E+02  -.11483E+02
   .17580E+02   .78250E+02  -.11477E+02
   .17590E+02   .78320E+02  -.11467E+02
   .17600E+02   .78385E+02  -.11458E+02
   .17610E+02   .78446E+02  -.11447E+02
   .17620E+02   .78503E+02  -.11436E+02
   .17630E+02   .78556E+02  -.11425E+02
   .17640E+02   .78606E+02  -.11414E+02
   .17660E+02   .78701E+02  -.11395E+02
   .17680E+02   .78789E+02  -.11376E+02
   .17700E+02   .78872E+02  -.11356E+02
   .17720E+02   .78951E+02  -.11337E+02
   .17740E+02   .79025E+02  -.11318E+02
   .17760E+02   .79095E+02  -.11299E+02
   .17780E+02   .79163E+02  -.11279E+02
   .17800E+02   .79228E+02  -.11260E+02
   .17820E+02   .79290E+02  -.11241E+02
   .17840E+02   .79350E+02  -.11222E+02
   .17880E+02   .79463E+02  -.11183E+02
   .17910E+02   .79543E+02  -.11155E+02
   .17950E+02   .79645E+02  -.11116E+02
   .17980E+02   .79717E+02  -.11088E+02
   .18020E+02   .79810E+02  -.11051E+02
   .18060E+02   .79898E+02  -.11014E+02
   .18100E+02   .79983E+02  -.10977E+02
   .18140E+02   .80064E+02  -.10942E+02
   .18180E+02   .80142E+02  -.10906E+02
   .18220E+02   .80220E+02  -.10870E+02
   .18250E+02   .80272E+02  -.10844E+02
   .18320E+02   .80395E+02  -.10781E+02
   .18400E+02   .80528E+02  -.10710E+02
   .18470E+02   .80638E+02  -.10648E+02
   .18550E+02   .80756E+02  -.10578E+02
   .18630E+02   .80868E+02  -.10508E+02
   .18700E+02   .80961E+02  -.10446E+02
   .18750E+02   .81025E+02  -.10404E+02
   .18800E+02   .81087E+02  -.10363E+02
   .18850E+02   .81147E+02  -.10321E+02
   .18900E+02   .81206E+02  -.10279E+02
   .18950E+02   .81263E+02  -.10238E+02
   .19000E+02   .81318E+02  -.10196E+02
   .19100E+02   .81425E+02  -.10113E+02
   .19180E+02   .81507E+02  -.10049E+02
   .19250E+02   .81576E+02  -.99931E+01
   .19320E+02   .81643E+02  -.99374E+01
   .19400E+02   .81717E+02  -.98738E+01
   .19470E+02   .81780E+02  -.98195E+01
   .19550E+02   .81849E+02  -.97575E+01
   .19630E+02   .81915E+02  -.96955E+01
   .19700E+02   .81972E+02  -.96412E+01
   .19780E+02   .82034E+02  -.95816E+01
   .19850E+02   .82087E+02  -.95294E+01
   .19930E+02   .82146E+02  -.94698E+01
   .20000E+02   .82196E+02  -.94176E+01
   .20070E+02   .82245E+02  -.93666E+01
   .20150E+02   .82298E+02  -.93085E+01
   .20230E+02   .82350E+02  -.92503E+01
   .20300E+02   .82394E+02  -.91994E+01
   .20380E+02   .82443E+02  -.91434E+01
   .20450E+02   .82485E+02  -.90944E+01
   .20520E+02   .82525E+02  -.90454E+01
   .20600E+02   .82570E+02  -.89894E+01
   .20680E+02   .82614E+02  -.89354E+01
   .20750E+02   .82651E+02  -.88882E+01
   .20820E+02   .82688E+02  -.88410E+01
   .20900E+02   .82728E+02  -.87870E+01
   .21000E+02   .82777E+02  -.87217E+01
   .21100E+02   .82824E+02  -.86563E+01
   .21180E+02   .82860E+02  -.86055E+01
   .21250E+02   .82892E+02  -.85611E+01
   .21320E+02   .82922E+02  -.85167E+01
   .21400E+02   .82956E+02  -.84660E+01
   .21500E+02   .82998E+02  -.84043E+01
   .21600E+02   .83038E+02  -.83427E+01
   .21680E+02   .83069E+02  -.82947E+01
   .21750E+02   .83096E+02  -.82527E+01
   .21820E+02   .83121E+02  -.82107E+01
   .21900E+02   .83150E+02  -.81627E+01
   .22030E+02   .83196E+02  -.80872E+01
   .22100E+02   .83220E+02  -.80466E+01
   .22163E+02   .83241E+02  -.80100E+01
   .22230E+02   .83262E+02  -.79725E+01
   .22300E+02   .83285E+02  -.79333E+01
   .22400E+02   .83316E+02  -.78772E+01
   .22500E+02   .83346E+02  -.78212E+01
   .22600E+02   .83375E+02  -.77675E+01
   .22700E+02   .83403E+02  -.77137E+01
   .22800E+02   .83431E+02  -.76600E+01
   .22900E+02   .83458E+02  -.76063E+01
   .23000E+02   .83484E+02  -.75546E+01
   .23100E+02   .83510E+02  -.75030E+01
   .23200E+02   .83534E+02  -.74514E+01
   .23300E+02   .83558E+02  -.73997E+01
   .23380E+02   .83577E+02  -.73599E+01
   .23450E+02   .83592E+02  -.73251E+01
   .23520E+02   .83608E+02  -.72902E+01
   .23600E+02   .83626E+02  -.72504E+01
   .23700E+02   .83647E+02  -.72026E+01
   .23800E+02   .83667E+02  -.71547E+01
   .23900E+02   .83688E+02  -.71068E+01
   .24000E+02   .83707E+02  -.70589E+01
   .24070E+02   .83721E+02  -.70263E+01
   .24150E+02   .83736E+02  -.69891E+01
   .24230E+02   .83750E+02  -.69518E+01
   .24300E+02   .83763E+02  -.69192E+01
   .24400E+02   .83780E+02  -.68744E+01
   .24500E+02   .83797E+02  -.68295E+01
   .24600E+02   .83813E+02  -.67847E+01
   .24700E+02   .83829E+02  -.67398E+01
   .24780E+02   .83841E+02  -.67053E+01
   .24850E+02   .83852E+02  -.66750E+01
   .24930E+02   .83863E+02  -.66405E+01
   .25000E+02   .83873E+02  -.66102E+01
   .25070E+02   .83883E+02  -.65809E+01
   .25150E+02   .83894E+02  -.65474E+01
   .25230E+02   .83905E+02  -.65139E+01
   .25300E+02   .83914E+02  -.64846E+01
   .25380E+02   .83924E+02  -.64521E+01
   .25450E+02   .83934E+02  -.64237E+01
   .25520E+02   .83942E+02  -.63953E+01
   .25600E+02   .83952E+02  -.63628E+01
   .25680E+02   .83961E+02  -.63313E+01
   .25750E+02   .83969E+02  -.63037E+01
   .25820E+02   .83977E+02  -.62762E+01
   .25900E+02   .83986E+02  -.62447E+01
   .26050E+02   .84002E+02  -.61873E+01
   .26200E+02   .84018E+02  -.61301E+01
   .26350E+02   .84033E+02  -.60744E+01
   .26500E+02   .84048E+02  -.60188E+01
   .26650E+02   .84062E+02  -.59641E+01
   .26800E+02   .84075E+02  -.59095E+01
   .26950E+02   .84087E+02  -.58564E+01
   .27100E+02   .84099E+02  -.58033E+01
   .27300E+02   .84114E+02  -.57348E+01
   .27470E+02   .84126E+02  -.56765E+01
   .27540E+02   .84131E+02  -.56533E+01
   .27600E+02   .84135E+02  -.56334E+01
   .27800E+02   .84148E+02  -.55672E+01
   .27950E+02   .84157E+02  -.55187E+01
   .28100E+02   .84166E+02  -.54702E+01
   .28250E+02   .84175E+02  -.54226E+01
   .28400E+02   .84182E+02  -.53751E+01
   .28550E+02   .84189E+02  -.53288E+01
   .28700E+02   .84196E+02  -.52826E+01
   .28900E+02   .84204E+02  -.52230E+01
   .29100E+02   .84212E+02  -.51634E+01
   .29250E+02   .84217E+02  -.51203E+01
   .29400E+02   .84222E+02  -.50773E+01
   .29700E+02   .84231E+02  -.49935E+01
   .29850E+02   .84235E+02  -.49528E+01
   .30000E+02   .84239E+02  -.49120E+01
   .30200E+02   .84244E+02  -.48592E+01
   .30400E+02   .84249E+02  -.48064E+01
   .30600E+02   .84253E+02  -.47554E+01
   .30800E+02   .84256E+02  -.47044E+01
   .31000E+02   .84259E+02  -.46551E+01
   .31200E+02   .84262E+02  -.46059E+01
   .31500E+02   .84266E+02  -.45341E+01
   .31900E+02   .84270E+02  -.44412E+01
   .32300E+02   .84272E+02  -.43514E+01
   .32600E+02   .84274E+02  -.42859E+01
   .33000E+02   .84275E+02  -.42010E+01
   .33400E+02   .84275E+02  -.41178E+01
   .33800E+02   .84274E+02  -.40372E+01
   .34100E+02   .84273E+02  -.39784E+01
   .34500E+02   .84271E+02  -.39022E+01
   .34900E+02   .84268E+02  -.38291E+01
   .35300E+02   .84264E+02  -.37561E+01
   .35700E+02   .84260E+02  -.36869E+01
   .36030E+02   .84255E+02  -.36298E+01
   .36500E+02   .84249E+02  -.35520E+01
   .37000E+02   .84241E+02  -.34721E+01
   .37500E+02   .84232E+02  -.33951E+01
   .38000E+02   .84223E+02  -.33208E+01
   .38500E+02   .84214E+02  -.32490E+01
   .39000E+02   .84204E+02  -.31796E+01
   .39500E+02   .84193E+02  -.31126E+01
   .40000E+02   .84183E+02  -.30478E+01
   .40800E+02   .84165E+02  -.29477E+01
   .41500E+02   .84149E+02  -.28643E+01
   .42300E+02   .84130E+02  -.27736E+01
   .43000E+02   .84113E+02  -.26978E+01
   .43800E+02   .84092E+02  -.26153E+01
   .44500E+02   .84075E+02  -.25463E+01
   .45300E+02   .84054E+02  -.24707E+01
   .46000E+02   .84036E+02  -.24072E+01
   .46500E+02   .84023E+02  -.23634E+01
   .47000E+02   .84009E+02  -.23209E+01
   .47500E+02   .83996E+02  -.22795E+01
   .48000E+02   .83983E+02  -.22394E+01
   .49000E+02   .83956E+02  -.21623E+01
   .49500E+02   .83943E+02  -.21254E+01
   .50000E+02   .83929E+02  -.20894E+01
   .50800E+02   .83908E+02  -.20335E+01
   .51500E+02   .83889E+02  -.19865E+01
   .52300E+02   .83867E+02  -.19349E+01
   .53000E+02   .83848E+02  -.18914E+01
   .54000E+02   .83821E+02  -.18320E+01
   .55000E+02   .83794E+02  -.17754E+01
   .55900E+02   .83770E+02  -.17266E+01
   .56815E+02   .83745E+02  -.16792E+01
   .57000E+02   .83740E+02  -.16698E+01
   .57200E+02   .83734E+02  -.16598E+01
   .57530E+02   .83725E+02  -.16435E+01
   .59540E+02   .83671E+02  -.15494E+01
   .59800E+02   .83663E+02  -.15378E+01
   .60000E+02   .83658E+02  -.15290E+01
   .60800E+02   .83636E+02  -.14944E+01
   .61500E+02   .83617E+02  -.14651E+01
   .62300E+02   .83595E+02  -.14328E+01
   .63000E+02   .83575E+02  -.14054E+01
   .64000E+02   .83547E+02  -.13677E+01
   .65000E+02   .83519E+02  -.13315E+01
   .65900E+02   .83493E+02  -.13002E+01
   .66830E+02   .83466E+02  -.12690E+01
   .67400E+02   .83450E+02  -.12504E+01
   .68000E+02   .83432E+02  -.12314E+01
   .69000E+02   .83402E+02  -.12006E+01
   .70000E+02   .83372E+02  -.11711E+01
   .71000E+02   .83341E+02  -.11425E+01
   .72000E+02   .83310E+02  -.11150E+01
   .72800E+02   .83284E+02  -.10941E+01
   .73500E+02   .83261E+02  -.10757E+01
   .74200E+02   .83238E+02  -.10584E+01
   .74960E+02   .83212E+02  -.10395E+01
   .75500E+02   .83193E+02  -.10266E+01
   .76000E+02   .83175E+02  -.10149E+01
   .76600E+02   .83153E+02  -.10012E+01
   .77110E+02   .83134E+02  -.98961E+00
   .77900E+02   .83104E+02  -.97242E+00
   .78600E+02   .83076E+02  -.95719E+00
   .79300E+02   .83048E+02  -.94253E+00
   .79700E+02   .83031E+02  -.93436E+00
   .80000E+02   .83019E+02  -.92823E+00
   .80800E+02   .82984E+02  -.91242E+00
   .81500E+02   .82952E+02  -.89859E+00
   .82300E+02   .82913E+02  -.88356E+00
   .83000E+02   .82878E+02  -.87041E+00
   .83500E+02   .82852E+02  -.86140E+00
   .84000E+02   .82825E+02  -.85239E+00
   .84500E+02   .82796E+02  -.84367E+00
   .85000E+02   .82767E+02  -.83495E+00
   .85400E+02   .82742E+02  -.82824E+00
   .85800E+02   .82717E+02  -.82154E+00
   .86200E+02   .82690E+02  -.81484E+00
   .86500E+02   .82670E+02  -.80982E+00
   .86900E+02   .82641E+02  -.80343E+00
   .87300E+02   .82612E+02  -.79704E+00
   .87700E+02   .82580E+02  -.79065E+00
   .88000E+02   .82556E+02  -.78585E+00
   .88300E+02   .82531E+02  -.78125E+00
   .88500E+02   .82514E+02  -.77817E+00
   .89000E+02   .82468E+02  -.77049E+00
   .89300E+02   .82439E+02  -.76603E+00
   .89500E+02   .82419E+02  -.76305E+00
   .89800E+02   .82388E+02  -.75858E+00
   .90000E+02   .82366E+02  -.75560E+00
   .90200E+02   .82344E+02  -.75273E+00
   .90400E+02   .82320E+02  -.74986E+00
   .90600E+02   .82296E+02  -.74699E+00
   .90800E+02   .82271E+02  -.74412E+00
   .91000E+02   .82245E+02  -.74125E+00
   .91200E+02   .82218E+02  -.73838E+00
   .91500E+02   .82175E+02  -.73407E+00
   .91700E+02   .82145E+02  -.73133E+00
   .91900E+02   .82113E+02  -.72858E+00
   .92100E+02   .82080E+02  -.72584E+00
   .92300E+02   .82045E+02  -.72309E+00
   .92500E+02   .82007E+02  -.72035E+00
   .92700E+02   .81968E+02  -.71761E+00
   .92850E+02   .81937E+02  -.71555E+00
   .93000E+02   .81904E+02  -.71349E+00
   .93200E+02   .81858E+02  -.71087E+00
   .93400E+02   .81809E+02  -.70825E+00
   .93600E+02   .81755E+02  -.70563E+00
   .93700E+02   .81727E+02  -.70432E+00
   .93800E+02   .81697E+02  -.70301E+00
   .93900E+02   .81666E+02  -.70170E+00
   .94000E+02   .81634E+02  -.70038E+00
   .94100E+02   .81600E+02  -.69907E+00
   .94200E+02   .81564E+02  -.69776E+00
   .94300E+02   .81526E+02  -.69645E+00
   .94400E+02   .81486E+02  -.69514E+00
   .94500E+02   .81444E+02  -.69383E+00
   .94600E+02   .81398E+02  -.69252E+00
   .94700E+02   .81350E+02  -.69127E+00
   .94800E+02   .81298E+02  -.69002E+00
   .94900E+02   .81242E+02  -.68876E+00
   .95000E+02   .81181E+02  -.68751E+00
   .95050E+02   .81148E+02  -.68689E+00
   .95100E+02   .81114E+02  -.68626E+00
   .95150E+02   .81078E+02  -.68563E+00
   .95200E+02   .81040E+02  -.68501E+00
   .95250E+02   .81000E+02  -.68438E+00
   .95300E+02   .80958E+02  -.68376E+00
   .95350E+02   .80913E+02  -.68313E+00
   .95400E+02   .80865E+02  -.68250E+00
   .95450E+02   .80814E+02  -.68188E+00
   .95500E+02   .80759E+02  -.68125E+00
   .95550E+02   .80699E+02  -.68063E+00
   .95600E+02   .80634E+02  -.68000E+00
   .95630E+02   .80592E+02  -.67962E+00
   .95650E+02   .80562E+02  -.67937E+00
   .95670E+02   .80532E+02  -.67912E+00
   .95700E+02   .80483E+02  -.67875E+00
   .95720E+02   .80449E+02  -.67850E+00
   .95750E+02   .80395E+02  -.67812E+00
   .95780E+02   .80336E+02  -.67775E+00
   .95800E+02   .80294E+02  -.67750E+00
   .95830E+02   .80226E+02  -.67712E+00
   .95850E+02   .80177E+02  -.67687E+00
   .95880E+02   .80097E+02  -.67649E+00
   .95900E+02   .80038E+02  -.67624E+00
   .95910E+02   .80007E+02  -.67612E+00
   .95920E+02   .79975E+02  -.67599E+00
   .95935E+02   .79923E+02  -.67580E+00
   .95950E+02   .79868E+02  -.67562E+00
   .95960E+02   .79828E+02  -.67549E+00
   .95970E+02   .79787E+02  -.67537E+00
   .95985E+02   .79720E+02  -.67518E+00
   .96000E+02   .79647E+02  -.67499E+00
   .96008E+02   .79604E+02  -.67489E+00
   .96015E+02   .79565E+02  -.67480E+00
   .96023E+02   .79518E+02  -.67470E+00
   .96030E+02   .79474E+02  -.67462E+00
   .96040E+02   .79407E+02  -.67449E+00
   .96050E+02   .79332E+02  -.67436E+00
   .96060E+02   .79250E+02  -.67424E+00
   .96065E+02   .79205E+02  -.67418E+00
   .96070E+02   .79157E+02  -.67411E+00
   .96075E+02   .79106E+02  -.67405E+00
   .96080E+02   .79052E+02  -.67399E+00
   .96085E+02   .78993E+02  -.67393E+00
   .96090E+02   .78929E+02  -.67386E+00
   .96095E+02   .78859E+02  -.67380E+00
   .96100E+02   .78781E+02  -.67374E+00
   .96105E+02   .78695E+02  -.67368E+00
   .96110E+02   .78597E+02  -.67361E+00
   .96113E+02   .78531E+02  -.67358E+00
   .96115E+02   .78484E+02  -.67355E+00
   .96118E+02   .78406E+02  -.67351E+00
   .96120E+02   .78349E+02  -.67349E+00
   .96123E+02   .78254E+02  -.67345E+00
   .96125E+02   .78183E+02  -.67343E+00
   .96128E+02   .78059E+02  -.67339E+00
   .96130E+02   .77962E+02  -.67336E+00
   .96132E+02   .77878E+02  -.67334E+00
   .96133E+02   .77781E+02  -.67333E+00
   .96134E+02   .77668E+02  -.67331E+00
   .96136E+02   .77528E+02  -.67329E+00
   .96137E+02   .77348E+02  -.67327E+00
   .96139E+02   .77093E+02  -.67325E+00
   .96141E+02   .76674E+02  -.67323E+00
   .96142E+02   .75813E+02  -.67321E+00
   .96142E+02   .75868E+02  -.97674E+00
   .96142E+02   .75957E+02  -.12803E+01
   .96142E+02   .76043E+02  -.15838E+01
   .96142E+02   .76218E+02  -.21908E+01
   .96143E+02   .76654E+02  -.37084E+01
   .96144E+02   .77430E+02  -.64401E+01
   .96145E+02   .78286E+02  -.35566E+01
   .96146E+02   .79060E+02  -.67317E+00
   .96147E+02   .78251E+02  -.67315E+00
   .96148E+02   .77744E+02  -.67314E+00
   .96149E+02   .77266E+02  -.67313E+00
   .96150E+02   .76690E+02  -.67311E+00
   .96151E+02   .76806E+02  -.20345E+01
   .96152E+02   .76929E+02  -.35472E+01
   .96154E+02   .77097E+02  -.12839E+01
   .96155E+02   .76739E+02  -.18367E+01
   .96156E+02   .76722E+02  -.26358E+01
   .96157E+02   .76873E+02  -.28431E+01
   .96158E+02   .77205E+02  -.28651E+01
   .96159E+02   .77365E+02  -.28870E+01
   .96160E+02   .77463E+02  -.29093E+01
   .96161E+02   .77544E+02  -.29315E+01
   .96162E+02   .77620E+02  -.29541E+01
   .96163E+02   .77687E+02  -.29767E+01
   .96164E+02   .77750E+02  -.29889E+01
   .96165E+02   .77809E+02  -.30010E+01
   .96166E+02   .77862E+02  -.30133E+01
   .96167E+02   .77910E+02  -.30255E+01
   .96168E+02   .77956E+02  -.30378E+01
   .96169E+02   .78002E+02  -.30500E+01
   .96170E+02   .78046E+02  -.30624E+01
   .96172E+02   .78110E+02  -.30726E+01
   .96173E+02   .78169E+02  -.30828E+01
   .96174E+02   .78207E+02  -.30896E+01
   .96175E+02   .78244E+02  -.30965E+01
   .96176E+02   .78296E+02  -.31010E+01
   .96178E+02   .78347E+02  -.31056E+01
   .96179E+02   .78379E+02  -.31086E+01
   .96180E+02   .78411E+02  -.31117E+01
   .96182E+02   .78454E+02  -.31122E+01
   .96183E+02   .78498E+02  -.31127E+01
   .96185E+02   .78551E+02  -.31134E+01
   .96188E+02   .78624E+02  -.31097E+01
   .96190E+02   .78669E+02  -.31072E+01
   .96192E+02   .78710E+02  -.31034E+01
   .96194E+02   .78749E+02  -.30996E+01
   .96197E+02   .78802E+02  -.30937E+01
   .96201E+02   .78866E+02  -.30869E+01
   .96205E+02   .78922E+02  -.30802E+01
   .96209E+02   .78973E+02  -.30766E+01
   .96213E+02   .79019E+02  -.30731E+01
   .96217E+02   .79062E+02  -.30726E+01
   .96220E+02   .79093E+02  -.30722E+01
   .96228E+02   .79170E+02  -.30754E+01
   .96235E+02   .79234E+02  -.30796E+01
   .96243E+02   .79304E+02  -.30840E+01
   .96250E+02   .79362E+02  -.30864E+01
   .96258E+02   .79424E+02  -.30873E+01
   .96265E+02   .79475E+02  -.30866E+01
   .96273E+02   .79528E+02  -.30844E+01
   .96280E+02   .79571E+02  -.30824E+01
   .96288E+02   .79617E+02  -.30804E+01
   .96295E+02   .79655E+02  -.30787E+01
   .96303E+02   .79695E+02  -.30781E+01
   .96310E+02   .79728E+02  -.30775E+01
   .96325E+02   .79796E+02  -.30786E+01
   .96340E+02   .79860E+02  -.30801E+01
   .96355E+02   .79920E+02  -.30792E+01
   .96370E+02   .79975E+02  -.30784E+01
   .96385E+02   .80026E+02  -.30775E+01
   .96400E+02   .80074E+02  -.30766E+01
   .96420E+02   .80133E+02  -.30761E+01
   .96450E+02   .80215E+02  -.30753E+01
   .96470E+02   .80266E+02  -.30748E+01
   .96500E+02   .80337E+02  -.30740E+01
   .96520E+02   .80381E+02  -.30727E+01
   .96550E+02   .80442E+02  -.30708E+01
   .96570E+02   .80481E+02  -.30696E+01
   .96600E+02   .80534E+02  -.30676E+01
   .96630E+02   .80585E+02  -.30665E+01
   .96650E+02   .80617E+02  -.30658E+01
   .96670E+02   .80648E+02  -.30651E+01
   .96700E+02   .80692E+02  -.30640E+01
   .96750E+02   .80761E+02  -.30621E+01
   .96780E+02   .80800E+02  -.30610E+01
   .96800E+02   .80827E+02  -.30603E+01
   .96840E+02   .80873E+02  -.30579E+01
   .96880E+02   .80918E+02  -.30556E+01
   .96910E+02   .80951E+02  -.30538E+01
   .96950E+02   .80991E+02  -.30515E+01
   .96980E+02   .81021E+02  -.30498E+01
   .97020E+02   .81058E+02  -.30474E+01
   .97060E+02   .81094E+02  -.30451E+01
   .97100E+02   .81128E+02  -.30428E+01
   .97150E+02   .81168E+02  -.30406E+01
   .97200E+02   .81207E+02  -.30384E+01
   .97250E+02   .81244E+02  -.30362E+01
   .97300E+02   .81280E+02  -.30340E+01
   .97400E+02   .81347E+02  -.30296E+01
   .97450E+02   .81379E+02  -.30274E+01
   .97500E+02   .81409E+02  -.30252E+01
   .97580E+02   .81456E+02  -.30215E+01
   .97650E+02   .81494E+02  -.30183E+01
   .97730E+02   .81537E+02  -.30146E+01
   .97800E+02   .81572E+02  -.30114E+01
   .97900E+02   .81620E+02  -.30068E+01
   .98000E+02   .81666E+02  -.30022E+01
   .98080E+02   .81701E+02  -.29977E+01
   .98150E+02   .81731E+02  -.29938E+01
   .98230E+02   .81763E+02  -.29893E+01
   .98300E+02   .81790E+02  -.29854E+01
   .98400E+02   .81826E+02  -.29798E+01
   .98500E+02   .81861E+02  -.29742E+01
   .98650E+02   .81910E+02  -.29675E+01
   .98800E+02   .81957E+02  -.29608E+01
   .98900E+02   .81987E+02  -.29564E+01
   .99000E+02   .82016E+02  -.29519E+01
   .99150E+02   .82057E+02  -.29466E+01
   .99300E+02   .82097E+02  -.29412E+01
   .99500E+02   .82148E+02  -.29341E+01
   .99800E+02   .82221E+02  -.29215E+01
   .99900E+02   .82244E+02  -.29173E+01
   .99950E+02   .82255E+02  -.29152E+01
   .10000E+03   .82266E+02  -.29131E+01
   .10020E+03   .82310E+02  -.29036E+01
   .10040E+03   .82350E+02  -.28942E+01
   .10060E+03   .82389E+02  -.28847E+01
   .10080E+03   .82426E+02  -.28753E+01
   .10100E+03   .82461E+02  -.28658E+01
   .10120E+03   .82495E+02  -.28564E+01
   .10135E+03   .82520E+02  -.28493E+01
   .10150E+03   .82543E+02  -.28422E+01
   .10170E+03   .82573E+02  -.28329E+01
   .10190E+03   .82602E+02  -.28236E+01
   .10210E+03   .82630E+02  -.28143E+01
   .10230E+03   .82657E+02  -.28051E+01
   .10250E+03   .82683E+02  -.27963E+01
   .10270E+03   .82708E+02  -.27875E+01
   .10300E+03   .82743E+02  -.27743E+01
   .10330E+03   .82777E+02  -.27624E+01
   .10350E+03   .82799E+02  -.27544E+01
   .10380E+03   .82832E+02  -.27426E+01
   .10400E+03   .82853E+02  -.27347E+01
   .10430E+03   .82883E+02  -.27231E+01
   .10450E+03   .82902E+02  -.27154E+01
   .10480E+03   .82931E+02  -.27039E+01
   .10500E+03   .82950E+02  -.26961E+01
   .10540E+03   .82985E+02  -.26811E+01
   .10580E+03   .83020E+02  -.26660E+01
   .10620E+03   .83053E+02  -.26510E+01
   .10650E+03   .83077E+02  -.26397E+01
   .10690E+03   .83107E+02  -.26246E+01
   .10730E+03   .83137E+02  -.26096E+01
   .10770E+03   .83165E+02  -.25945E+01
   .10800E+03   .83186E+02  -.25832E+01
   .10830E+03   .83206E+02  -.25720E+01
   .10850E+03   .83219E+02  -.25645E+01
   .10900E+03   .83251E+02  -.25457E+01
   .10950E+03   .83281E+02  -.25269E+01
   .10980E+03   .83298E+02  -.25157E+01
   .11000E+03   .83309E+02  -.25082E+01
   .11040E+03   .83331E+02  -.24933E+01
   .11080E+03   .83353E+02  -.24785E+01
   .11120E+03   .83373E+02  -.24636E+01
   .11150E+03   .83388E+02  -.24525E+01
   .11190E+03   .83406E+02  -.24384E+01
   .11230E+03   .83424E+02  -.24244E+01
   .11270E+03   .83442E+02  -.24103E+01
   .11300E+03   .83455E+02  -.23997E+01
   .11350E+03   .83476E+02  -.23828E+01
   .11400E+03   .83496E+02  -.23659E+01
   .11450E+03   .83515E+02  -.23493E+01
   .11500E+03   .83534E+02  -.23328E+01
   .11540E+03   .83548E+02  -.23200E+01
   .11580E+03   .83562E+02  -.23072E+01
   .11620E+03   .83576E+02  -.22945E+01
   .11650E+03   .83586E+02  -.22849E+01
   .11690E+03   .83599E+02  -.22725E+01
   .11730E+03   .83612E+02  -.22602E+01
   .11770E+03   .83624E+02  -.22478E+01
   .11800E+03   .83633E+02  -.22386E+01
   .11850E+03   .83647E+02  -.22235E+01
   .11900E+03   .83661E+02  -.22085E+01
   .11950E+03   .83675E+02  -.21941E+01
   .12000E+03   .83688E+02  -.21796E+01
   .12050E+03   .83701E+02  -.21656E+01
   .12100E+03   .83714E+02  -.21516E+01
   .12150E+03   .83726E+02  -.21376E+01
   .12200E+03   .83738E+02  -.21236E+01
   .12250E+03   .83749E+02  -.21101E+01
   .12300E+03   .83761E+02  -.20966E+01
   .12350E+03   .83772E+02  -.20832E+01
   .12400E+03   .83782E+02  -.20697E+01
   .12440E+03   .83791E+02  -.20593E+01
   .12480E+03   .83799E+02  -.20488E+01
   .12550E+03   .83812E+02  -.20305E+01
   .12630E+03   .83827E+02  -.20103E+01
   .12700E+03   .83840E+02  -.19926E+01
   .12780E+03   .83854E+02  -.19729E+01
   .12850E+03   .83865E+02  -.19557E+01
   .12930E+03   .83878E+02  -.19367E+01
   .13000E+03   .83889E+02  -.19200E+01
   .13080E+03   .83901E+02  -.19017E+01
   .13150E+03   .83911E+02  -.18857E+01
   .13230E+03   .83922E+02  -.18673E+01
   .13300E+03   .83931E+02  -.18513E+01
   .13380E+03   .83941E+02  -.18339E+01
   .13450E+03   .83950E+02  -.18186E+01
   .13530E+03   .83960E+02  -.18012E+01
   .13600E+03   .83968E+02  -.17860E+01
   .13680E+03   .83977E+02  -.17693E+01
   .13750E+03   .83984E+02  -.17548E+01
   .13830E+03   .83992E+02  -.17381E+01
   .13900E+03   .83999E+02  -.17235E+01
   .13980E+03   .84006E+02  -.17076E+01
   .14050E+03   .84013E+02  -.16936E+01
   .14130E+03   .84020E+02  -.16780E+01
   .14200E+03   .84025E+02  -.16644E+01
   .14300E+03   .84033E+02  -.16456E+01
   .14400E+03   .84041E+02  -.16267E+01
   .14470E+03   .84046E+02  -.16140E+01
   .14540E+03   .84050E+02  -.16012E+01
   .14570E+03   .84052E+02  -.15958E+01
   .14600E+03   .84054E+02  -.15904E+01
   .14670E+03   .84059E+02  -.15780E+01
   .14800E+03   .84067E+02  -.15554E+01
   .14900E+03   .84073E+02  -.15384E+01
   .14950E+03   .84075E+02  -.15300E+01
   .15000E+03   .84078E+02  -.15216E+01
   .15200E+03   .84088E+02  -.14893E+01
   .15400E+03   .84097E+02  -.14580E+01
   .15600E+03   .84105E+02  -.14278E+01
   .15800E+03   .84113E+02  -.13986E+01
   .16000E+03   .84119E+02  -.13704E+01
   .16200E+03   .84126E+02  -.13430E+01
   .16350E+03   .84130E+02  -.13233E+01
   .16500E+03   .84134E+02  -.13037E+01
   .16700E+03   .84138E+02  -.12784E+01
   .16900E+03   .84143E+02  -.12540E+01
   .17100E+03   .84146E+02  -.12303E+01
   .17300E+03   .84149E+02  -.12073E+01
   .17500E+03   .84152E+02  -.11850E+01
   .17700E+03   .84155E+02  -.11633E+01
   .18000E+03   .84158E+02  -.11321E+01
   .18300E+03   .84160E+02  -.11023E+01
   .18500E+03   .84162E+02  -.10831E+01
   .18800E+03   .84163E+02  -.10553E+01
   .19000E+03   .84164E+02  -.10375E+01
   .19300E+03   .84165E+02  -.10116E+01
   .19500E+03   .84165E+02  -.99490E+00
   .19800E+03   .84166E+02  -.97070E+00
   .20000E+03   .84165E+02  -.95508E+00
