    E(keV)         f1           f2     
   .10000E+01   .54004E+02  -.28368E+02
   .10100E+01   .54283E+02  -.28132E+02
   .10200E+01   .54540E+02  -.27896E+02
   .10300E+01   .54782E+02  -.27666E+02
   .10410E+01   .55035E+02  -.27419E+02
   .10550E+01   .55340E+02  -.27115E+02
   .10700E+01   .55653E+02  -.26789E+02
   .10850E+01   .55951E+02  -.26469E+02
   .11000E+01   .56230E+02  -.26149E+02
   .11150E+01   .56500E+02  -.25839E+02
   .11300E+01   .56753E+02  -.25528E+02
   .11500E+01   .57073E+02  -.25127E+02
   .11700E+01   .57370E+02  -.24725E+02
   .12000E+01   .57776E+02  -.24143E+02
   .12300E+01   .58139E+02  -.23581E+02
   .12540E+01   .58402E+02  -.23142E+02
   .12900E+01   .58752E+02  -.22514E+02
   .13200E+01   .59016E+02  -.22009E+02
   .13500E+01   .59251E+02  -.21524E+02
   .13800E+01   .59460E+02  -.21050E+02
   .14100E+01   .59646E+02  -.20594E+02
   .14400E+01   .59807E+02  -.20151E+02
   .14700E+01   .59949E+02  -.19724E+02
   .15000E+01   .60071E+02  -.19311E+02
   .15200E+01   .60141E+02  -.19045E+02
   .15500E+01   .60229E+02  -.18646E+02
   .15700E+01   .60279E+02  -.18395E+02
   .16000E+01   .60338E+02  -.18018E+02
   .16200E+01   .60367E+02  -.17781E+02
   .16500E+01   .60399E+02  -.17426E+02
   .17000E+01   .60417E+02  -.16861E+02
   .17300E+01   .60408E+02  -.16538E+02
   .17600E+01   .60385E+02  -.16223E+02
   .17900E+01   .60347E+02  -.15920E+02
   .18250E+01   .60286E+02  -.15574E+02
   .18500E+01   .60229E+02  -.15338E+02
   .18700E+01   .60176E+02  -.15149E+02
   .19100E+01   .60052E+02  -.14787E+02
   .19500E+01   .59900E+02  -.14438E+02
   .19700E+01   .59813E+02  -.14269E+02
   .20000E+01   .59673E+02  -.14023E+02
   .20300E+01   .59515E+02  -.13779E+02
   .20700E+01   .59274E+02  -.13465E+02
   .21100E+01   .58998E+02  -.13164E+02
   .21500E+01   .58688E+02  -.12875E+02
   .21800E+01   .58429E+02  -.12662E+02
   .22000E+01   .58241E+02  -.12525E+02
   .22200E+01   .58040E+02  -.12387E+02
   .22400E+01   .57827E+02  -.12255E+02
   .22600E+01   .57600E+02  -.12123E+02
   .22800E+01   .57358E+02  -.11997E+02
   .23000E+01   .57100E+02  -.11870E+02
   .23200E+01   .56825E+02  -.11747E+02
   .23500E+01   .56374E+02  -.11562E+02
   .23700E+01   .56045E+02  -.11444E+02
   .24000E+01   .55502E+02  -.11268E+02
   .24200E+01   .55104E+02  -.11156E+02
   .24350E+01   .54783E+02  -.11071E+02
   .24500E+01   .54440E+02  -.10987E+02
   .24650E+01   .54073E+02  -.10907E+02
   .24800E+01   .53679E+02  -.10826E+02
   .24900E+01   .53399E+02  -.10773E+02
   .25000E+01   .53105E+02  -.10719E+02
   .25150E+01   .52632E+02  -.10640E+02
   .25300E+01   .52115E+02  -.10561E+02
   .25450E+01   .51546E+02  -.10484E+02
   .25530E+01   .51218E+02  -.10443E+02
   .25600E+01   .50915E+02  -.10408E+02
   .25670E+01   .50595E+02  -.10373E+02
   .25750E+01   .50207E+02  -.10334E+02
   .25820E+01   .49847E+02  -.10299E+02
   .25900E+01   .49405E+02  -.10260E+02
   .25970E+01   .48991E+02  -.10225E+02
   .26050E+01   .48479E+02  -.10186E+02
   .26130E+01   .47920E+02  -.10146E+02
   .26210E+01   .47304E+02  -.10107E+02
   .26215E+01   .47263E+02  -.10105E+02
   .26220E+01   .47222E+02  -.10102E+02
   .26225E+01   .47181E+02  -.10100E+02
   .26230E+01   .47139E+02  -.10097E+02
   .26300E+01   .46526E+02  -.10065E+02
   .26360E+01   .45946E+02  -.10037E+02
   .26400E+01   .45526E+02  -.10018E+02
   .26430E+01   .45190E+02  -.10004E+02
   .26460E+01   .44833E+02  -.99899E+01
   .26480E+01   .44584E+02  -.99805E+01
   .26500E+01   .44324E+02  -.99712E+01
   .26515E+01   .44121E+02  -.99642E+01
   .26523E+01   .44009E+02  -.99604E+01
   .26526E+01   .43967E+02  -.99590E+01
   .26528E+01   .43939E+02  -.99581E+01
   .26529E+01   .43924E+02  -.99576E+01
   .26530E+01   .43917E+02  -.99574E+01
   .26530E+01   .43856E+02  -.99572E+01
   .26530E+01   .43901E+02  -.99569E+01
   .26531E+01   .43896E+02  -.99567E+01
   .26532E+01   .43881E+02  -.99562E+01
   .26535E+01   .43838E+02  -.99548E+01
   .26540E+01   .43766E+02  -.99525E+01
   .26550E+01   .43618E+02  -.99478E+01
   .26570E+01   .43307E+02  -.99384E+01
   .26590E+01   .42984E+02  -.99291E+01
   .26610E+01   .42639E+02  -.99197E+01
   .26640E+01   .42079E+02  -.99057E+01
   .26660E+01   .41672E+02  -.98963E+01
   .26680E+01   .41231E+02  -.98870E+01
   .26695E+01   .40874E+02  -.98799E+01
   .26710E+01   .40488E+02  -.98729E+01
   .26725E+01   .40064E+02  -.98659E+01
   .26740E+01   .39580E+02  -.98589E+01
   .26756E+01   .38889E+02  -.98514E+01
   .26771E+01   .28097E+02  -.98443E+01
   .26772E+01   .38770E+02  -.46485E+02
   .26772E+01   .49442E+02  -.98438E+01
   .26786E+01   .38687E+02  -.98375E+01
   .26799E+01   .37939E+02  -.98316E+01
   .26812E+01   .37230E+02  -.98257E+01
   .26826E+01   .34387E+02  -.98194E+01
   .26826E+01   .36517E+02  -.17252E+02
   .26827E+01   .38647E+02  -.98189E+01
   .26831E+01   .36442E+02  -.98170E+01
   .26835E+01   .35323E+02  -.98151E+01
   .26836E+01   .36046E+02  -.12484E+02
   .26836E+01   .36765E+02  -.98146E+01
   .26837E+01   .36532E+02  -.98144E+01
   .26837E+01   .36330E+02  -.98143E+01
   .26837E+01   .36142E+02  -.99099E+01
   .26838E+01   .36032E+02  -.98138E+01
   .26839E+01   .35826E+02  -.98135E+01
   .26839E+01   .35506E+02  -.98132E+01
   .26840E+01   .35820E+02  -.11162E+02
   .26840E+01   .36182E+02  -.98127E+01
   .26841E+01   .35917E+02  -.98125E+01
   .26841E+01   .35661E+02  -.98123E+01
   .26842E+01   .35765E+02  -.10575E+02
   .26842E+01   .35872E+02  -.98118E+01
   .26843E+01   .35740E+02  -.98117E+01
   .26843E+01   .35668E+02  -.98117E+01
   .26843E+01   .35743E+02  -.10527E+02
   .26844E+01   .35827E+02  -.98112E+01
   .26844E+01   .35722E+02  -.98111E+01
   .26844E+01   .35657E+02  -.98110E+01
   .26845E+01   .35724E+02  -.10397E+02
   .26845E+01   .35810E+02  -.98105E+01
   .26847E+01   .35437E+02  -.98097E+01
   .26848E+01   .35300E+02  -.98093E+01
   .26848E+01   .35226E+02  -.98090E+01
   .26849E+01   .35154E+02  -.98088E+01
   .26850E+01   .35047E+02  -.98086E+01
   .26850E+01   .34930E+02  -.98582E+01
   .26851E+01   .34851E+02  -.99842E+01
   .26851E+01   .34868E+02  -.10111E+02
   .26851E+01   .34885E+02  -.10114E+02
   .26852E+01   .34904E+02  -.10117E+02
   .26853E+01   .34869E+02  -.10122E+02
   .26855E+01   .34790E+02  -.10130E+02
   .26856E+01   .34697E+02  -.10141E+02
   .26860E+01   .34421E+02  -.10170E+02
   .26865E+01   .34040E+02  -.10220E+02
   .26870E+01   .33627E+02  -.10286E+02
   .26873E+01   .33360E+02  -.10335E+02
   .26875E+01   .33182E+02  -.10373E+02
   .26878E+01   .32897E+02  -.10438E+02
   .26880E+01   .32707E+02  -.10485E+02
   .26882E+01   .32507E+02  -.10538E+02
   .26884E+01   .32306E+02  -.10598E+02
   .26886E+01   .32095E+02  -.10662E+02
   .26888E+01   .31885E+02  -.10732E+02
   .26890E+01   .31716E+02  -.10790E+02
   .26891E+01   .31548E+02  -.10851E+02
   .26893E+01   .31324E+02  -.10940E+02
   .26895E+01   .31099E+02  -.11036E+02
   .26897E+01   .30859E+02  -.11142E+02
   .26899E+01   .30618E+02  -.11256E+02
   .26901E+01   .30378E+02  -.11380E+02
   .26903E+01   .30138E+02  -.11515E+02
   .26905E+01   .29885E+02  -.11661E+02
   .26907E+01   .29632E+02  -.11818E+02
   .26909E+01   .29443E+02  -.11946E+02
   .26910E+01   .29253E+02  -.12081E+02
   .26912E+01   .28997E+02  -.12272E+02
   .26914E+01   .28742E+02  -.12477E+02
   .26916E+01   .28486E+02  -.12697E+02
   .26918E+01   .28230E+02  -.12931E+02
   .26920E+01   .28045E+02  -.13118E+02
   .26921E+01   .27859E+02  -.13316E+02
   .26923E+01   .27612E+02  -.13591E+02
   .26925E+01   .27365E+02  -.13884E+02
   .26927E+01   .27136E+02  -.14194E+02
   .26929E+01   .26908E+02  -.14521E+02
   .26931E+01   .26698E+02  -.14865E+02
   .26933E+01   .26489E+02  -.15226E+02
   .26935E+01   .26309E+02  -.15602E+02
   .26937E+01   .26129E+02  -.15996E+02
   .26939E+01   .26014E+02  -.16299E+02
   .26940E+01   .25899E+02  -.16611E+02
   .26942E+01   .25781E+02  -.17037E+02
   .26944E+01   .25663E+02  -.17474E+02
   .26946E+01   .25588E+02  -.17922E+02
   .26948E+01   .25513E+02  -.18379E+02
   .26951E+01   .25465E+02  -.19073E+02
   .26955E+01   .25484E+02  -.20012E+02
   .26958E+01   .25569E+02  -.20710E+02
   .26962E+01   .25768E+02  -.21625E+02
   .26964E+01   .25914E+02  -.22069E+02
   .26966E+01   .26061E+02  -.22503E+02
   .26968E+01   .26250E+02  -.22922E+02
   .26970E+01   .26440E+02  -.23327E+02
   .26973E+01   .26783E+02  -.23905E+02
   .26975E+01   .27012E+02  -.24269E+02
   .26977E+01   .27276E+02  -.24615E+02
   .26980E+01   .27672E+02  -.25093E+02
   .26982E+01   .27956E+02  -.25388E+02
   .26985E+01   .28383E+02  -.25793E+02
   .26988E+01   .28830E+02  -.26160E+02
   .26990E+01   .29128E+02  -.26376E+02
   .26992E+01   .29423E+02  -.26574E+02
   .26995E+01   .29867E+02  -.26844E+02
   .26997E+01   .30162E+02  -.27002E+02
   .27000E+01   .30606E+02  -.27208E+02
   .27003E+01   .31029E+02  -.27387E+02
   .27005E+01   .31311E+02  -.27483E+02
   .27008E+01   .31715E+02  -.27616E+02
   .27010E+01   .31984E+02  -.27691E+02
   .27014E+01   .32489E+02  -.27809E+02
   .27018E+01   .32967E+02  -.27893E+02
   .27021E+01   .33297E+02  -.27939E+02
   .27025E+01   .33737E+02  -.27982E+02
   .27029E+01   .34129E+02  -.28005E+02
   .27033E+01   .34521E+02  -.28012E+02
   .27040E+01   .35124E+02  -.28003E+02
   .27048E+01   .35736E+02  -.27964E+02
   .27055E+01   .36213E+02  -.27918E+02
   .27062E+01   .36643E+02  -.27870E+02
   .27070E+01   .37088E+02  -.27814E+02
   .27077E+01   .37444E+02  -.27768E+02
   .27085E+01   .37818E+02  -.27716E+02
   .27092E+01   .38122E+02  -.27678E+02
   .27100E+01   .38447E+02  -.27634E+02
   .27120E+01   .39183E+02  -.27552E+02
   .27140E+01   .39842E+02  -.27480E+02
   .27155E+01   .40295E+02  -.27422E+02
   .27170E+01   .40720E+02  -.27364E+02
   .27190E+01   .41253E+02  -.27264E+02
   .27210E+01   .41741E+02  -.27163E+02
   .27225E+01   .42075E+02  -.27066E+02
   .27240E+01   .42381E+02  -.26968E+02
   .27260E+01   .42758E+02  -.26821E+02
   .27280E+01   .43086E+02  -.26673E+02
   .27295E+01   .43306E+02  -.26559E+02
   .27310E+01   .43503E+02  -.26445E+02
   .27330E+01   .43736E+02  -.26299E+02
   .27350E+01   .43935E+02  -.26153E+02
   .27370E+01   .44106E+02  -.26021E+02
   .27388E+01   .44238E+02  -.25900E+02
   .27420E+01   .44421E+02  -.25726E+02
   .27460E+01   .44595E+02  -.25541E+02
   .27500E+01   .44716E+02  -.25396E+02
   .27540E+01   .44801E+02  -.25280E+02
   .27580E+01   .44854E+02  -.25191E+02
   .27620E+01   .44880E+02  -.25115E+02
   .27660E+01   .44877E+02  -.25048E+02
   .27700E+01   .44841E+02  -.24980E+02
   .27730E+01   .44785E+02  -.24927E+02
   .27760E+01   .44698E+02  -.24873E+02
   .27790E+01   .44577E+02  -.24819E+02
   .27820E+01   .44414E+02  -.24766E+02
   .27850E+01   .44198E+02  -.24712E+02
   .27880E+01   .43902E+02  -.24659E+02
   .27910E+01   .43408E+02  -.24606E+02
   .27931E+01   .31993E+02  -.24568E+02
   .27932E+01   .43429E+02  -.62504E+02
   .27933E+01   .54865E+02  -.24566E+02
   .27946E+01   .43684E+02  -.24541E+02
   .27960E+01   .42278E+02  -.24517E+02
   .27960E+01   .43239E+02  -.27752E+02
   .27961E+01   .44202E+02  -.24515E+02
   .27974E+01   .42934E+02  -.24491E+02
   .27987E+01   .42583E+02  -.24469E+02
   .28000E+01   .42171E+02  -.24445E+02
   .28013E+01   .40210E+02  -.24422E+02
   .28013E+01   .41728E+02  -.29588E+02
   .28014E+01   .43216E+02  -.24420E+02
   .28014E+01   .42969E+02  -.24420E+02
   .28014E+01   .42614E+02  -.24420E+02
   .28015E+01   .42373E+02  -.25075E+02
   .28015E+01   .42368E+02  -.24418E+02
   .28019E+01   .41706E+02  -.24411E+02
   .28023E+01   .40866E+02  -.24403E+02
   .28024E+01   .41527E+02  -.26492E+02
   .28024E+01   .42071E+02  -.24401E+02
   .28025E+01   .41742E+02  -.24400E+02
   .28026E+01   .41588E+02  -.24399E+02
   .28026E+01   .41491E+02  -.24461E+02
   .28027E+01   .41414E+02  -.24397E+02
   .28027E+01   .41297E+02  -.24397E+02
   .28028E+01   .41090E+02  -.24396E+02
   .28028E+01   .41370E+02  -.25436E+02
   .28029E+01   .41598E+02  -.24394E+02
   .28029E+01   .41403E+02  -.24393E+02
   .28030E+01   .41216E+02  -.24392E+02
   .28030E+01   .41315E+02  -.24976E+02
   .28031E+01   .41383E+02  -.24390E+02
   .28031E+01   .41305E+02  -.24390E+02
   .28031E+01   .41253E+02  -.24389E+02
   .28032E+01   .41275E+02  -.24877E+02
   .28032E+01   .41321E+02  -.24388E+02
   .28032E+01   .41277E+02  -.24387E+02
   .28033E+01   .41240E+02  -.24686E+02
   .28034E+01   .41239E+02  -.24385E+02
   .28034E+01   .41187E+02  -.24385E+02
   .28034E+01   .41153E+02  -.24384E+02
   .28035E+01   .41125E+02  -.24422E+02
   .28035E+01   .41102E+02  -.24479E+02
   .28035E+01   .41082E+02  -.24537E+02
   .28035E+01   .41063E+02  -.24595E+02
   .28036E+01   .41046E+02  -.24615E+02
   .28036E+01   .41029E+02  -.24616E+02
   .28036E+01   .41004E+02  -.24618E+02
   .28037E+01   .40980E+02  -.24619E+02
   .28038E+01   .40936E+02  -.24622E+02
   .28040E+01   .40856E+02  -.24629E+02
   .28042E+01   .40782E+02  -.24635E+02
   .28046E+01   .40604E+02  -.24656E+02
   .28050E+01   .40413E+02  -.24678E+02
   .28055E+01   .40155E+02  -.24720E+02
   .28060E+01   .39877E+02  -.24776E+02
   .28065E+01   .39579E+02  -.24850E+02
   .28070E+01   .39259E+02  -.24945E+02
   .28074E+01   .38981E+02  -.25041E+02
   .28077E+01   .38773E+02  -.25126E+02
   .28081E+01   .38471E+02  -.25258E+02
   .28085E+01   .38170E+02  -.25417E+02
   .28088E+01   .37928E+02  -.25554E+02
   .28092E+01   .37606E+02  -.25767E+02
   .28096E+01   .37275E+02  -.26015E+02
   .28098E+01   .37110E+02  -.26159E+02
   .28100E+01   .36945E+02  -.26304E+02
   .28103E+01   .36698E+02  -.26549E+02
   .28105E+01   .36534E+02  -.26728E+02
   .28107E+01   .36377E+02  -.26917E+02
   .28110E+01   .36143E+02  -.27225E+02
   .28112E+01   .36000E+02  -.27445E+02
   .28115E+01   .35787E+02  -.27798E+02
   .28117E+01   .35664E+02  -.28049E+02
   .28120E+01   .35480E+02  -.28446E+02
   .28123E+01   .35343E+02  -.28873E+02
   .28125E+01   .35252E+02  -.29162E+02
   .28127E+01   .35181E+02  -.29470E+02
   .28130E+01   .35110E+02  -.29932E+02
   .28132E+01   .35081E+02  -.30255E+02
   .28135E+01   .35072E+02  -.30738E+02
   .28138E+01   .35101E+02  -.31230E+02
   .28140E+01   .35145E+02  -.31558E+02
   .28144E+01   .35287E+02  -.32203E+02
   .28148E+01   .35500E+02  -.32827E+02
   .28152E+01   .35776E+02  -.33417E+02
   .28155E+01   .36023E+02  -.33831E+02
   .28159E+01   .36390E+02  -.34338E+02
   .28163E+01   .36795E+02  -.34791E+02
   .28167E+01   .37225E+02  -.35186E+02
   .28170E+01   .37561E+02  -.35445E+02
   .28173E+01   .37901E+02  -.35672E+02
   .28175E+01   .38128E+02  -.35807E+02
   .28177E+01   .38354E+02  -.35929E+02
   .28180E+01   .38694E+02  -.36089E+02
   .28185E+01   .39237E+02  -.36300E+02
   .28190E+01   .39759E+02  -.36453E+02
   .28195E+01   .40252E+02  -.36555E+02
   .28200E+01   .40713E+02  -.36618E+02
   .28205E+01   .41142E+02  -.36651E+02
   .28210E+01   .41540E+02  -.36660E+02
   .28214E+01   .41834E+02  -.36650E+02
   .28218E+01   .42111E+02  -.36640E+02
   .28225E+01   .42558E+02  -.36601E+02
   .28233E+01   .43012E+02  -.36541E+02
   .28240E+01   .43367E+02  -.36488E+02
   .28248E+01   .43738E+02  -.36428E+02
   .28255E+01   .44038E+02  -.36375E+02
   .28263E+01   .44354E+02  -.36315E+02
   .28270E+01   .44608E+02  -.36263E+02
   .28285E+01   .45111E+02  -.36180E+02
   .28300E+01   .45569E+02  -.36097E+02
   .28310E+01   .45853E+02  -.36052E+02
   .28320E+01   .46128E+02  -.36008E+02
   .28335E+01   .46520E+02  -.35943E+02
   .28350E+01   .46895E+02  -.35878E+02
   .28365E+01   .47250E+02  -.35803E+02
   .28380E+01   .47584E+02  -.35727E+02
   .28400E+01   .48009E+02  -.35627E+02
   .28430E+01   .48589E+02  -.35444E+02
   .28450E+01   .48938E+02  -.35322E+02
   .28470E+01   .49261E+02  -.35195E+02
   .28500E+01   .49694E+02  -.35004E+02
   .28520E+01   .49954E+02  -.34887E+02
   .28550E+01   .50308E+02  -.34712E+02
   .28580E+01   .50627E+02  -.34565E+02
   .28600E+01   .50822E+02  -.34467E+02
   .28630E+01   .51099E+02  -.34346E+02
   .28650E+01   .51272E+02  -.34266E+02
   .28700E+01   .51678E+02  -.34105E+02
   .28780E+01   .52292E+02  -.33907E+02
   .28850E+01   .52803E+02  -.33762E+02
   .28930E+01   .53360E+02  -.33599E+02
   .29000E+01   .53820E+02  -.33457E+02
   .29050E+01   .54133E+02  -.33350E+02
   .29100E+01   .54428E+02  -.33243E+02
   .29150E+01   .54708E+02  -.33139E+02
   .29200E+01   .54971E+02  -.33035E+02
   .29280E+01   .55372E+02  -.32890E+02
   .29350E+01   .55703E+02  -.32763E+02
   .29430E+01   .56066E+02  -.32636E+02
   .29500E+01   .56375E+02  -.32526E+02
   .29650E+01   .57004E+02  -.32294E+02
   .29800E+01   .57591E+02  -.32062E+02
   .29900E+01   .57958E+02  -.31901E+02
   .30000E+01   .58302E+02  -.31740E+02
   .30050E+01   .58467E+02  -.31661E+02
   .30100E+01   .58627E+02  -.31583E+02
   .30200E+01   .58935E+02  -.31426E+02
   .30290E+01   .59199E+02  -.31287E+02
   .30330E+01   .59313E+02  -.31226E+02
   .30372E+01   .59430E+02  -.31161E+02
   .30490E+01   .59743E+02  -.30983E+02
   .30600E+01   .60018E+02  -.30818E+02
   .30750E+01   .60369E+02  -.30593E+02
   .30900E+01   .60689E+02  -.30367E+02
   .31050E+01   .60981E+02  -.30150E+02
   .31200E+01   .61244E+02  -.29932E+02
   .31350E+01   .61479E+02  -.29715E+02
   .31500E+01   .61686E+02  -.29497E+02
   .31650E+01   .61856E+02  -.29287E+02
   .31730E+01   .61932E+02  -.29174E+02
   .31800E+01   .61989E+02  -.29076E+02
   .31880E+01   .62042E+02  -.28964E+02
   .31950E+01   .62077E+02  -.28865E+02
   .32030E+01   .62103E+02  -.28753E+02
   .32100E+01   .62111E+02  -.28655E+02
   .32180E+01   .62099E+02  -.28547E+02
   .32250E+01   .62068E+02  -.28452E+02
   .32330E+01   .62002E+02  -.28344E+02
   .32370E+01   .61953E+02  -.28289E+02
   .32400E+01   .61909E+02  -.28249E+02
   .32440E+01   .61836E+02  -.28195E+02
   .32480E+01   .61747E+02  -.28140E+02
   .32520E+01   .61636E+02  -.28086E+02
   .32560E+01   .61496E+02  -.28032E+02
   .32580E+01   .61412E+02  -.28005E+02
   .32600E+01   .61318E+02  -.27978E+02
   .32620E+01   .61209E+02  -.27951E+02
   .32640E+01   .61084E+02  -.27924E+02
   .32660E+01   .60938E+02  -.27897E+02
   .32680E+01   .60764E+02  -.27870E+02
   .32695E+01   .60607E+02  -.27849E+02
   .32711E+01   .60336E+02  -.27828E+02
   .32712E+01   .60408E+02  -.28095E+02
   .32712E+01   .60480E+02  -.27826E+02
   .32726E+01   .60199E+02  -.27808E+02
   .32739E+01   .59887E+02  -.27791E+02
   .32740E+01   .59935E+02  -.27996E+02
   .32740E+01   .59983E+02  -.27789E+02
   .32751E+01   .59668E+02  -.27775E+02
   .32756E+01   .59519E+02  -.27768E+02
   .32762E+01   .59322E+02  -.27761E+02
   .32767E+01   .59083E+02  -.27754E+02
   .32772E+01   .58779E+02  -.27747E+02
   .32777E+01   .58261E+02  -.27741E+02
   .32783E+01   .52572E+02  -.27733E+02
   .32783E+01   .58526E+02  -.47566E+02
   .32784E+01   .64478E+02  -.27731E+02
   .32788E+01   .59028E+02  -.27726E+02
   .32791E+01   .58265E+02  -.27722E+02
   .32794E+01   .57418E+02  -.27718E+02
   .32798E+01   .51285E+02  -.27713E+02
   .32799E+01   .57135E+02  -.47542E+02
   .32799E+01   .62150E+02  -.27711E+02
   .32799E+01   .61217E+02  -.27711E+02
   .32799E+01   .60390E+02  -.27711E+02
   .32800E+01   .60103E+02  -.33899E+02
   .32801E+01   .61001E+02  -.27709E+02
   .32803E+01   .57925E+02  -.27707E+02
   .32805E+01   .53594E+02  -.27704E+02
   .32806E+01   .58035E+02  -.42030E+02
   .32806E+01   .61782E+02  -.27702E+02
   .32807E+01   .58552E+02  -.27701E+02
   .32808E+01   .55942E+02  -.27700E+02
   .32809E+01   .57896E+02  -.35771E+02
   .32809E+01   .59468E+02  -.27698E+02
   .32810E+01   .57998E+02  -.27698E+02
   .32810E+01   .56480E+02  -.27697E+02
   .32811E+01   .57957E+02  -.35735E+02
   .32811E+01   .59645E+02  -.27695E+02
   .32812E+01   .58655E+02  -.27695E+02
   .32812E+01   .57439E+02  -.27695E+02
   .32812E+01   .58178E+02  -.33963E+02
   .32813E+01   .58911E+02  -.27693E+02
   .32813E+01   .59176E+02  -.27693E+02
   .32813E+01   .59437E+02  -.27693E+02
   .32814E+01   .58381E+02  -.29673E+02
   .32814E+01   .57559E+02  -.28461E+02
   .32815E+01   .56878E+02  -.29276E+02
   .32815E+01   .56914E+02  -.30105E+02
   .32815E+01   .57127E+02  -.30541E+02
   .32816E+01   .57539E+02  -.30568E+02
   .32817E+01   .57662E+02  -.30595E+02
   .32817E+01   .57743E+02  -.30622E+02
   .32817E+01   .57801E+02  -.30650E+02
   .32818E+01   .57846E+02  -.30677E+02
   .32818E+01   .57877E+02  -.30698E+02
   .32819E+01   .57906E+02  -.30719E+02
   .32819E+01   .57950E+02  -.30756E+02
   .32820E+01   .57988E+02  -.30791E+02
   .32821E+01   .58027E+02  -.30831E+02
   .32822E+01   .58094E+02  -.30903E+02
   .32824E+01   .58159E+02  -.30974E+02
   .32826E+01   .58219E+02  -.31041E+02
   .32827E+01   .58279E+02  -.31107E+02
   .32830E+01   .58400E+02  -.31220E+02
   .32833E+01   .58517E+02  -.31332E+02
   .32837E+01   .58675E+02  -.31455E+02
   .32840E+01   .58792E+02  -.31548E+02
   .32845E+01   .58984E+02  -.31668E+02
   .32850E+01   .59172E+02  -.31766E+02
   .32855E+01   .59354E+02  -.31844E+02
   .32860E+01   .59529E+02  -.31905E+02
   .32868E+01   .59783E+02  -.31970E+02
   .32875E+01   .59993E+02  -.32007E+02
   .32883E+01   .60210E+02  -.32033E+02
   .32890E+01   .60382E+02  -.32043E+02
   .32895E+01   .60497E+02  -.32042E+02
   .32900E+01   .60604E+02  -.32041E+02
   .32910E+01   .60802E+02  -.32029E+02
   .32925E+01   .61059E+02  -.31995E+02
   .32940E+01   .61281E+02  -.31960E+02
   .32950E+01   .61411E+02  -.31933E+02
   .32960E+01   .61530E+02  -.31906E+02
   .32980E+01   .61742E+02  -.31853E+02
   .33000E+01   .61922E+02  -.31799E+02
   .33030E+01   .62151E+02  -.31742E+02
   .33050E+01   .62286E+02  -.31704E+02
   .33080E+01   .62469E+02  -.31665E+02
   .33100E+01   .62583E+02  -.31639E+02
   .33150E+01   .62855E+02  -.31600E+02
   .33200E+01   .63111E+02  -.31563E+02
   .33280E+01   .63504E+02  -.31488E+02
   .33350E+01   .63813E+02  -.31423E+02
   .33430E+01   .64149E+02  -.31322E+02
   .33500E+01   .64410E+02  -.31234E+02
   .33580E+01   .64684E+02  -.31125E+02
   .33650E+01   .64905E+02  -.31029E+02
   .33730E+01   .65137E+02  -.30927E+02
   .33800E+01   .65332E+02  -.30837E+02
   .33900E+01   .65599E+02  -.30711E+02
   .34000E+01   .65855E+02  -.30585E+02
   .34100E+01   .66098E+02  -.30458E+02
   .34200E+01   .66326E+02  -.30332E+02
   .34280E+01   .66500E+02  -.30233E+02
   .34350E+01   .66647E+02  -.30145E+02
   .34500E+01   .66948E+02  -.29958E+02
   .34700E+01   .67320E+02  -.29708E+02
   .34900E+01   .67666E+02  -.29458E+02
   .35050E+01   .67910E+02  -.29279E+02
   .35200E+01   .68140E+02  -.29099E+02
   .35400E+01   .68429E+02  -.28859E+02
   .35576E+01   .68668E+02  -.28648E+02
   .35700E+01   .68828E+02  -.28506E+02
   .35900E+01   .69071E+02  -.28276E+02
   .36100E+01   .69299E+02  -.28047E+02
   .36300E+01   .69511E+02  -.27817E+02
   .36450E+01   .69658E+02  -.27652E+02
   .36600E+01   .69796E+02  -.27487E+02
   .36800E+01   .69966E+02  -.27268E+02
   .37000E+01   .70118E+02  -.27048E+02
   .37150E+01   .70219E+02  -.26890E+02
   .37300E+01   .70309E+02  -.26732E+02
   .37400E+01   .70361E+02  -.26626E+02
   .37500E+01   .70405E+02  -.26521E+02
   .37600E+01   .70441E+02  -.26416E+02
   .37700E+01   .70467E+02  -.26311E+02
   .37780E+01   .70479E+02  -.26230E+02
   .37850E+01   .70482E+02  -.26159E+02
   .37930E+01   .70474E+02  -.26078E+02
   .38000E+01   .70454E+02  -.26008E+02
   .38050E+01   .70430E+02  -.25957E+02
   .38100E+01   .70395E+02  -.25907E+02
   .38150E+01   .70346E+02  -.25856E+02
   .38200E+01   .70274E+02  -.25806E+02
   .38240E+01   .70194E+02  -.25765E+02
   .38270E+01   .70112E+02  -.25735E+02
   .38285E+01   .70061E+02  -.25720E+02
   .38300E+01   .70001E+02  -.25705E+02
   .38320E+01   .69899E+02  -.25685E+02
   .38338E+01   .69723E+02  -.25666E+02
   .38339E+01   .69772E+02  -.25842E+02
   .38340E+01   .69820E+02  -.25665E+02
   .38350E+01   .69674E+02  -.25655E+02
   .38361E+01   .69538E+02  -.25644E+02
   .38366E+01   .69449E+02  -.25639E+02
   .38371E+01   .69337E+02  -.25634E+02
   .38376E+01   .69158E+02  -.25629E+02
   .38382E+01   .67675E+02  -.25623E+02
   .38382E+01   .69174E+02  -.30546E+02
   .38383E+01   .70671E+02  -.25622E+02
   .38387E+01   .69271E+02  -.25618E+02
   .38390E+01   .68982E+02  -.25615E+02
   .38392E+01   .68789E+02  -.25613E+02
   .38394E+01   .68494E+02  -.25611E+02
   .38396E+01   .68066E+02  -.25610E+02
   .38397E+01   .66617E+02  -.25608E+02
   .38398E+01   .68484E+02  -.32109E+02
   .38398E+01   .70213E+02  -.25607E+02
   .38399E+01   .69922E+02  -.25607E+02
   .38399E+01   .69454E+02  -.27142E+02
   .38400E+01   .69504E+02  -.25605E+02
   .38401E+01   .69181E+02  -.25605E+02
   .38401E+01   .68899E+02  -.25604E+02
   .38402E+01   .68657E+02  -.25604E+02
   .38402E+01   .68461E+02  -.25603E+02
   .38403E+01   .68190E+02  -.25603E+02
   .38403E+01   .67904E+02  -.25603E+02
   .38403E+01   .67357E+02  -.25602E+02
   .38404E+01   .66692E+02  -.25757E+02
   .38404E+01   .66834E+02  -.25860E+02
   .38404E+01   .67116E+02  -.25990E+02
   .38405E+01   .67792E+02  -.30780E+02
   .38405E+01   .69359E+02  -.26652E+02
   .38406E+01   .68938E+02  -.26660E+02
   .38406E+01   .68695E+02  -.26667E+02
   .38407E+01   .68438E+02  -.26675E+02
   .38407E+01   .68085E+02  -.26683E+02
   .38407E+01   .68423E+02  -.27968E+02
   .38408E+01   .68753E+02  -.29253E+02
   .38409E+01   .69281E+02  -.26712E+02
   .38409E+01   .68975E+02  -.26717E+02
   .38409E+01   .68611E+02  -.26722E+02
   .38410E+01   .69171E+02  -.29285E+02
   .38411E+01   .69651E+02  -.26751E+02
   .38411E+01   .69437E+02  -.26755E+02
   .38411E+01   .69219E+02  -.26758E+02
   .38412E+01   .69578E+02  -.28906E+02
   .38412E+01   .69769E+02  -.26777E+02
   .38412E+01   .69930E+02  -.26781E+02
   .38412E+01   .70176E+02  -.26785E+02
   .38413E+01   .70058E+02  -.26957E+02
   .38414E+01   .69805E+02  -.26801E+02
   .38417E+01   .69482E+02  -.26851E+02
   .38420E+01   .69446E+02  -.26894E+02
   .38424E+01   .69456E+02  -.26938E+02
   .38427E+01   .69481E+02  -.26971E+02
   .38434E+01   .69560E+02  -.27024E+02
   .38440E+01   .69632E+02  -.27062E+02
   .38445E+01   .69694E+02  -.27079E+02
   .38450E+01   .69754E+02  -.27096E+02
   .38460E+01   .69863E+02  -.27106E+02
   .38468E+01   .69944E+02  -.27107E+02
   .38475E+01   .70006E+02  -.27108E+02
   .38483E+01   .70072E+02  -.27100E+02
   .38490E+01   .70124E+02  -.27094E+02
   .38500E+01   .70191E+02  -.27082E+02
   .38510E+01   .70251E+02  -.27069E+02
   .38520E+01   .70306E+02  -.27055E+02
   .38530E+01   .70356E+02  -.27040E+02
   .38550E+01   .70444E+02  -.27011E+02
   .38580E+01   .70553E+02  -.26968E+02
   .38600E+01   .70612E+02  -.26939E+02
   .38630E+01   .70692E+02  -.26910E+02
   .38650E+01   .70743E+02  -.26891E+02
   .38700E+01   .70856E+02  -.26842E+02
   .38750E+01   .70957E+02  -.26806E+02
   .38800E+01   .71058E+02  -.26770E+02
   .38880E+01   .71207E+02  -.26703E+02
   .38950E+01   .71326E+02  -.26643E+02
   .39030E+01   .71457E+02  -.26569E+02
   .39100E+01   .71560E+02  -.26504E+02
   .39200E+01   .71692E+02  -.26410E+02
   .39300E+01   .71813E+02  -.26316E+02
   .39400E+01   .71927E+02  -.26223E+02
   .39500E+01   .72034E+02  -.26129E+02
   .39660E+01   .72193E+02  -.25982E+02
   .39812E+01   .72330E+02  -.25843E+02
   .39860E+01   .72371E+02  -.25798E+02
   .39910E+01   .72412E+02  -.25753E+02
   .40000E+01   .72482E+02  -.25671E+02
   .40100E+01   .72556E+02  -.25582E+02
   .40200E+01   .72623E+02  -.25493E+02
   .40300E+01   .72684E+02  -.25404E+02
   .40400E+01   .72739E+02  -.25314E+02
   .40500E+01   .72786E+02  -.25225E+02
   .40600E+01   .72824E+02  -.25136E+02
   .40730E+01   .72856E+02  -.25020E+02
   .40860E+01   .72857E+02  -.24904E+02
   .40900E+01   .72848E+02  -.24870E+02
   .40930E+01   .72836E+02  -.24844E+02
   .40970E+01   .72814E+02  -.24810E+02
   .41000E+01   .72789E+02  -.24784E+02
   .41050E+01   .72727E+02  -.24741E+02
   .41100E+01   .72618E+02  -.24698E+02
   .41130E+01   .72503E+02  -.24672E+02
   .41150E+01   .72379E+02  -.24654E+02
   .41180E+01   .71976E+02  -.24629E+02
   .41210E+01   .52594E+02  -.24603E+02
   .41211E+01   .72232E+02  -.88984E+02
   .41211E+01   .91870E+02  -.24601E+02
   .41225E+01   .72979E+02  -.24590E+02
   .41238E+01   .59948E+02  -.24579E+02
   .41239E+01   .73108E+02  -.67793E+02
   .41240E+01   .86269E+02  -.24577E+02
   .41253E+01   .73602E+02  -.24566E+02
   .41259E+01   .73248E+02  -.24561E+02
   .41266E+01   .72971E+02  -.24555E+02
   .41272E+01   .72737E+02  -.24550E+02
   .41279E+01   .72432E+02  -.24544E+02
   .41282E+01   .72249E+02  -.24541E+02
   .41285E+01   .71980E+02  -.24539E+02
   .41288E+01   .71467E+02  -.24536E+02
   .41292E+01   .66826E+02  -.24533E+02
   .41293E+01   .71955E+02  -.42127E+02
   .41293E+01   .77745E+02  -.24532E+02
   .41295E+01   .73955E+02  -.24530E+02
   .41297E+01   .73084E+02  -.24529E+02
   .41298E+01   .72809E+02  -.24613E+02
   .41298E+01   .72589E+02  -.24528E+02
   .41299E+01   .72293E+02  -.24527E+02
   .41300E+01   .71987E+02  -.24526E+02
   .41301E+01   .71476E+02  -.24525E+02
   .41302E+01   .70357E+02  -.24524E+02
   .41302E+01   .71221E+02  -.27684E+02
   .41303E+01   .72077E+02  -.30843E+02
   .41303E+01   .72891E+02  -.27683E+02
   .41304E+01   .73646E+02  -.24523E+02
   .41304E+01   .73570E+02  -.24523E+02
   .41304E+01   .72802E+02  -.24628E+02
   .41304E+01   .72326E+02  -.24895E+02
   .41305E+01   .72023E+02  -.25060E+02
   .41305E+01   .71870E+02  -.25300E+02
   .41306E+01   .71673E+02  -.25445E+02
   .41306E+01   .71426E+02  -.25446E+02
   .41307E+01   .72340E+02  -.28448E+02
   .41308E+01   .73112E+02  -.25446E+02
   .41308E+01   .72621E+02  -.25446E+02
   .41308E+01   .72185E+02  -.25446E+02
   .41309E+01   .72785E+02  -.28122E+02
   .41310E+01   .73386E+02  -.25446E+02
   .41310E+01   .73141E+02  -.25446E+02
   .41311E+01   .72908E+02  -.25446E+02
   .41311E+01   .73282E+02  -.27482E+02
   .41312E+01   .73793E+02  -.25446E+02
   .41314E+01   .73248E+02  -.25445E+02
   .41316E+01   .73092E+02  -.25443E+02
   .41318E+01   .73037E+02  -.25442E+02
   .41319E+01   .73003E+02  -.25441E+02
   .41322E+01   .72966E+02  -.25439E+02
   .41326E+01   .72943E+02  -.25436E+02
   .41329E+01   .72936E+02  -.25434E+02
   .41333E+01   .72933E+02  -.25431E+02
   .41340E+01   .72938E+02  -.25426E+02
   .41345E+01   .72945E+02  -.25422E+02
   .41350E+01   .72954E+02  -.25418E+02
   .41360E+01   .72974E+02  -.25411E+02
   .41375E+01   .73007E+02  -.25399E+02
   .41390E+01   .73043E+02  -.25388E+02
   .41410E+01   .73095E+02  -.25373E+02
   .41440E+01   .73164E+02  -.25351E+02
   .41460E+01   .73207E+02  -.25336E+02
   .41480E+01   .73250E+02  -.25321E+02
   .41500E+01   .73294E+02  -.25306E+02
   .41550E+01   .73395E+02  -.25269E+02
   .41600E+01   .73486E+02  -.25232E+02
   .41650E+01   .73570E+02  -.25195E+02
   .41700E+01   .73646E+02  -.25158E+02
   .41740E+01   .73702E+02  -.25128E+02
   .41780E+01   .73755E+02  -.25098E+02
   .41850E+01   .73841E+02  -.25046E+02
   .41930E+01   .73932E+02  -.24986E+02
   .42000E+01   .74009E+02  -.24934E+02
   .42150E+01   .74165E+02  -.24823E+02
   .42300E+01   .74314E+02  -.24711E+02
   .42500E+01   .74500E+02  -.24562E+02
   .42700E+01   .74671E+02  -.24414E+02
   .42850E+01   .74793E+02  -.24296E+02
   .43000E+01   .74910E+02  -.24178E+02
   .43200E+01   .75060E+02  -.24021E+02
   .43400E+01   .75202E+02  -.23864E+02
   .43550E+01   .75305E+02  -.23750E+02
   .43700E+01   .75401E+02  -.23636E+02
   .44000E+01   .75598E+02  -.23409E+02
   .44200E+01   .75720E+02  -.23260E+02
   .44500E+01   .75896E+02  -.23038E+02
   .44700E+01   .76008E+02  -.22894E+02
   .45000E+01   .76170E+02  -.22677E+02
   .45200E+01   .76274E+02  -.22538E+02
   .45500E+01   .76423E+02  -.22329E+02
   .45700E+01   .76518E+02  -.22189E+02
   .46000E+01   .76657E+02  -.21980E+02
   .46300E+01   .76790E+02  -.21781E+02
   .46500E+01   .76875E+02  -.21649E+02
   .46700E+01   .76958E+02  -.21517E+02
   .47000E+01   .77079E+02  -.21318E+02
   .47200E+01   .77157E+02  -.21192E+02
   .47500E+01   .77270E+02  -.21004E+02
   .48000E+01   .77450E+02  -.20689E+02
   .48300E+01   .77554E+02  -.20508E+02
   .48500E+01   .77620E+02  -.20387E+02
   .48800E+01   .77716E+02  -.20206E+02
   .49000E+01   .77778E+02  -.20085E+02
   .49500E+01   .77927E+02  -.19798E+02
   .50000E+01   .78068E+02  -.19510E+02
   .50200E+01   .78122E+02  -.19399E+02
   .50500E+01   .78201E+02  -.19231E+02
   .51000E+01   .78325E+02  -.18959E+02
   .51500E+01   .78442E+02  -.18696E+02
   .52000E+01   .78552E+02  -.18433E+02
   .52600E+01   .78676E+02  -.18132E+02
   .53100E+01   .78775E+02  -.17882E+02
   .53600E+01   .78867E+02  -.17642E+02
   .54147E+01   .78963E+02  -.17379E+02
   .54900E+01   .79085E+02  -.17033E+02
   .55200E+01   .79132E+02  -.16898E+02
   .55600E+01   .79191E+02  -.16717E+02
   .55900E+01   .79233E+02  -.16586E+02
   .56300E+01   .79287E+02  -.16411E+02
   .57000E+01   .79375E+02  -.16114E+02
   .57800E+01   .79468E+02  -.15785E+02
   .58100E+01   .79501E+02  -.15664E+02
   .58500E+01   .79543E+02  -.15503E+02
   .58800E+01   .79572E+02  -.15385E+02
   .59200E+01   .79609E+02  -.15228E+02
   .59600E+01   .79644E+02  -.15076E+02
   .60000E+01   .79677E+02  -.14924E+02
   .60500E+01   .79715E+02  -.14742E+02
   .61000E+01   .79751E+02  -.14560E+02
   .61500E+01   .79785E+02  -.14385E+02
   .62000E+01   .79816E+02  -.14210E+02
   .62500E+01   .79846E+02  -.14042E+02
   .63000E+01   .79873E+02  -.13874E+02
   .63500E+01   .79898E+02  -.13712E+02
   .64038E+01   .79923E+02  -.13538E+02
   .64800E+01   .79955E+02  -.13304E+02
   .65500E+01   .79981E+02  -.13089E+02
   .66300E+01   .80008E+02  -.12857E+02
   .67000E+01   .80029E+02  -.12654E+02
   .67800E+01   .80050E+02  -.12434E+02
   .68500E+01   .80067E+02  -.12241E+02
   .69200E+01   .80081E+02  -.12055E+02
   .70000E+01   .80095E+02  -.11848E+02
   .70700E+01   .80104E+02  -.11672E+02
   .71500E+01   .80112E+02  -.11471E+02
   .72200E+01   .80116E+02  -.11304E+02
   .73000E+01   .80119E+02  -.11113E+02
   .74000E+01   .80119E+02  -.10883E+02
   .75000E+01   .80115E+02  -.10661E+02
   .75700E+01   .80109E+02  -.10511E+02
   .76500E+01   .80102E+02  -.10340E+02
   .77200E+01   .80093E+02  -.10198E+02
   .78000E+01   .80082E+02  -.10036E+02
   .79000E+01   .80065E+02  -.98407E+01
   .80000E+01   .80046E+02  -.96519E+01
   .80200E+01   .80042E+02  -.96149E+01
   .80478E+01   .80036E+02  -.95639E+01
   .81700E+01   .80008E+02  -.93449E+01
   .83000E+01   .79976E+02  -.91208E+01
   .84000E+01   .79949E+02  -.89544E+01
   .85000E+01   .79921E+02  -.87930E+01
   .86000E+01   .79892E+02  -.86350E+01
   .87000E+01   .79860E+02  -.84817E+01
   .88300E+01   .79816E+02  -.82890E+01
   .89686E+01   .79767E+02  -.80913E+01
   .90000E+01   .79756E+02  -.80476E+01
   .91500E+01   .79699E+02  -.78418E+01
   .93000E+01   .79637E+02  -.76444E+01
   .94000E+01   .79594E+02  -.75173E+01
   .95000E+01   .79550E+02  -.73936E+01
   .96500E+01   .79480E+02  -.72137E+01
   .98000E+01   .79407E+02  -.70409E+01
   .99000E+01   .79356E+02  -.69295E+01
   .10000E+02   .79304E+02  -.68209E+01
   .10150E+02   .79223E+02  -.66623E+01
   .10300E+02   .79138E+02  -.65096E+01
   .10450E+02   .79049E+02  -.63625E+01
   .10600E+02   .78956E+02  -.62208E+01
   .10750E+02   .78859E+02  -.60842E+01
   .10900E+02   .78757E+02  -.59524E+01
   .11100E+02   .78613E+02  -.57829E+01
   .11160E+02   .78568E+02  -.57337E+01
   .11220E+02   .78522E+02  -.56845E+01
   .11310E+02   .78451E+02  -.56133E+01
   .11400E+02   .78377E+02  -.55420E+01
   .11500E+02   .78292E+02  -.54661E+01
   .11600E+02   .78203E+02  -.53903E+01
   .11680E+02   .78130E+02  -.53319E+01
   .11750E+02   .78063E+02  -.52808E+01
   .11830E+02   .77984E+02  -.52244E+01
   .11900E+02   .77913E+02  -.51750E+01
   .11980E+02   .77829E+02  -.51203E+01
   .12050E+02   .77752E+02  -.50725E+01
   .12130E+02   .77661E+02  -.50195E+01
   .12200E+02   .77578E+02  -.49731E+01
   .12270E+02   .77491E+02  -.49281E+01
   .12350E+02   .77387E+02  -.48768E+01
   .12420E+02   .77292E+02  -.48333E+01
   .12500E+02   .77178E+02  -.47835E+01
   .12570E+02   .77072E+02  -.47413E+01
   .12650E+02   .76944E+02  -.46931E+01
   .12720E+02   .76825E+02  -.46522E+01
   .12760E+02   .76754E+02  -.46288E+01
   .12800E+02   .76680E+02  -.46054E+01
   .12850E+02   .76584E+02  -.45771E+01
   .12900E+02   .76483E+02  -.45489E+01
   .12950E+02   .76376E+02  -.45206E+01
   .13000E+02   .76263E+02  -.44923E+01
   .13050E+02   .76143E+02  -.44651E+01
   .13100E+02   .76016E+02  -.44379E+01
   .13150E+02   .75879E+02  -.44106E+01
   .13200E+02   .75732E+02  -.43834E+01
   .13230E+02   .75638E+02  -.43676E+01
   .13270E+02   .75505E+02  -.43466E+01
   .13310E+02   .75363E+02  -.43256E+01
   .13350E+02   .75208E+02  -.43045E+01
   .13380E+02   .75084E+02  -.42892E+01
   .13400E+02   .74996E+02  -.42790E+01
   .13420E+02   .74904E+02  -.42688E+01
   .13440E+02   .74807E+02  -.42586E+01
   .13460E+02   .74705E+02  -.42483E+01
   .13480E+02   .74597E+02  -.42381E+01
   .13500E+02   .74482E+02  -.42279E+01
   .13515E+02   .74392E+02  -.42205E+01
   .13530E+02   .74297E+02  -.42130E+01
   .13550E+02   .74161E+02  -.42031E+01
   .13570E+02   .74016E+02  -.41932E+01
   .13580E+02   .73938E+02  -.41882E+01
   .13590E+02   .73858E+02  -.41832E+01
   .13595E+02   .73816E+02  -.41808E+01
   .13600E+02   .73773E+02  -.41783E+01
   .13603E+02   .73747E+02  -.41768E+01
   .13605E+02   .73730E+02  -.41758E+01
   .13606E+02   .73716E+02  -.41751E+01
   .13607E+02   .73709E+02  -.41747E+01
   .13608E+02   .73703E+02  -.41743E+01
   .13608E+02   .73700E+02  -.41742E+01
   .13608E+02   .73699E+02  -.41741E+01
   .13609E+02   .73634E+02  -.41740E+01
   .13609E+02   .73631E+02  -.41738E+01
   .13609E+02   .73630E+02  -.41737E+01
   .13609E+02   .73627E+02  -.41736E+01
   .13610E+02   .73625E+02  -.41735E+01
   .13610E+02   .73624E+02  -.41734E+01
   .13610E+02   .73623E+02  -.41733E+01
   .13610E+02   .73622E+02  -.41733E+01
   .13610E+02   .73682E+02  -.41732E+01
   .13611E+02   .73681E+02  -.41731E+01
   .13611E+02   .73679E+02  -.41730E+01
   .13611E+02   .73675E+02  -.41728E+01
   .13611E+02   .73672E+02  -.41726E+01
   .13612E+02   .73664E+02  -.41722E+01
   .13613E+02   .73658E+02  -.41718E+01
   .13614E+02   .73649E+02  -.41713E+01
   .13615E+02   .73639E+02  -.41708E+01
   .13618E+02   .73611E+02  -.41694E+01
   .13620E+02   .73592E+02  -.41684E+01
   .13625E+02   .73544E+02  -.41659E+01
   .13630E+02   .73495E+02  -.41634E+01
   .13640E+02   .73392E+02  -.41584E+01
   .13650E+02   .73283E+02  -.41535E+01
   .13660E+02   .73168E+02  -.41487E+01
   .13670E+02   .73044E+02  -.41438E+01
   .13680E+02   .72912E+02  -.41390E+01
   .13690E+02   .72770E+02  -.41342E+01
   .13700E+02   .72616E+02  -.41294E+01
   .13710E+02   .72449E+02  -.41246E+01
   .13720E+02   .72264E+02  -.41197E+01
   .13725E+02   .72165E+02  -.41173E+01
   .13730E+02   .72060E+02  -.41149E+01
   .13735E+02   .71949E+02  -.41125E+01
   .13740E+02   .71830E+02  -.41101E+01
   .13745E+02   .71704E+02  -.41077E+01
   .13750E+02   .71568E+02  -.41053E+01
   .13755E+02   .71422E+02  -.41029E+01
   .13760E+02   .71264E+02  -.41005E+01
   .13765E+02   .71090E+02  -.40981E+01
   .13770E+02   .70900E+02  -.40956E+01
   .13773E+02   .70775E+02  -.40942E+01
   .13775E+02   .70687E+02  -.40932E+01
   .13778E+02   .70546E+02  -.40918E+01
   .13780E+02   .70447E+02  -.40908E+01
   .13783E+02   .70286E+02  -.40894E+01
   .13785E+02   .70171E+02  -.40884E+01
   .13788E+02   .69984E+02  -.40870E+01
   .13790E+02   .69847E+02  -.40860E+01
   .13792E+02   .69700E+02  -.40850E+01
   .13794E+02   .69541E+02  -.40841E+01
   .13796E+02   .69366E+02  -.40831E+01
   .13798E+02   .69173E+02  -.40821E+01
   .13800E+02   .68957E+02  -.40812E+01
   .13801E+02   .68839E+02  -.40807E+01
   .13802E+02   .68713E+02  -.40802E+01
   .13803E+02   .68577E+02  -.40797E+01
   .13804E+02   .68429E+02  -.40792E+01
   .13805E+02   .68267E+02  -.40788E+01
   .13806E+02   .68065E+02  -.40783E+01
   .13806E+02   .68059E+02  -.41140E+01
   .13806E+02   .68057E+02  -.41496E+01
   .13806E+02   .68044E+02  -.41853E+01
   .13807E+02   .68021E+02  -.40780E+01
   .13808E+02   .67762E+02  -.40775E+01
   .13809E+02   .67469E+02  -.40770E+01
   .13809E+02   .67422E+02  -.41724E+01
   .13809E+02   .67372E+02  -.40767E+01
   .13810E+02   .67233E+02  -.40765E+01
   .13810E+02   .67066E+02  -.40763E+01
   .13811E+02   .66886E+02  -.40760E+01
   .13811E+02   .66682E+02  -.40758E+01
   .13812E+02   .66445E+02  -.40756E+01
   .13812E+02   .66153E+02  -.40753E+01
   .13813E+02   .65744E+02  -.40751E+01
   .13813E+02   .65063E+02  -.40749E+01
   .13813E+02   .65349E+02  -.56364E+01
   .13814E+02   .65511E+02  -.64172E+01
   .13814E+02   .65901E+02  -.40746E+01
   .13814E+02   .65355E+02  -.40745E+01
   .13814E+02   .64686E+02  -.40744E+01
   .13814E+02   .64044E+02  -.40743E+01
   .13815E+02   .62922E+02  -.40742E+01
   .13815E+02   .64403E+02  -.11784E+02
   .13815E+02   .66255E+02  -.40739E+01
   .13816E+02   .64369E+02  -.40738E+01
   .13816E+02   .63240E+02  -.40738E+01
   .13816E+02   .65086E+02  -.12522E+02
   .13816E+02   .66234E+02  -.40735E+01
   .13816E+02   .66674E+02  -.40735E+01
   .13816E+02   .66025E+02  -.71822E+01
   .13817E+02   .65428E+02  -.40732E+01
   .13817E+02   .64306E+02  -.40737E+01
   .13817E+02   .63108E+02  -.50886E+01
   .13817E+02   .62518E+02  -.60204E+01
   .13817E+02   .62666E+02  -.71153E+01
   .13818E+02   .63063E+02  -.80382E+01
   .13818E+02   .63713E+02  -.82029E+01
   .13818E+02   .63894E+02  -.83208E+01
   .13818E+02   .64077E+02  -.84227E+01
   .13818E+02   .64231E+02  -.84881E+01
   .13818E+02   .64334E+02  -.86187E+01
   .13818E+02   .64411E+02  -.86792E+01
   .13818E+02   .64485E+02  -.87396E+01
   .13819E+02   .64620E+02  -.88537E+01
   .13819E+02   .64684E+02  -.89334E+01
   .13819E+02   .64815E+02  -.90138E+01
   .13819E+02   .64875E+02  -.90591E+01
   .13819E+02   .64936E+02  -.91045E+01
   .13819E+02   .64995E+02  -.91729E+01
   .13819E+02   .65115E+02  -.92423E+01
   .13820E+02   .65171E+02  -.92987E+01
   .13820E+02   .65285E+02  -.93555E+01
   .13820E+02   .65400E+02  -.94323E+01
   .13820E+02   .65508E+02  -.94941E+01
   .13820E+02   .65618E+02  -.95563E+01
   .13821E+02   .65827E+02  -.96637E+01
   .13821E+02   .65977E+02  -.97350E+01
   .13821E+02   .66173E+02  -.98140E+01
   .13822E+02   .66358E+02  -.98795E+01
   .13822E+02   .66536E+02  -.99320E+01
   .13823E+02   .66703E+02  -.99734E+01
   .13823E+02   .66822E+02  -.99999E+01
   .13823E+02   .67012E+02  -.10034E+02
   .13824E+02   .67187E+02  -.10061E+02
   .13825E+02   .67352E+02  -.10075E+02
   .13825E+02   .67506E+02  -.10084E+02
   .13825E+02   .67649E+02  -.10087E+02
   .13826E+02   .67782E+02  -.10090E+02
   .13826E+02   .67908E+02  -.10086E+02
   .13827E+02   .68025E+02  -.10083E+02
   .13828E+02   .68197E+02  -.10070E+02
   .13828E+02   .68334E+02  -.10058E+02
   .13829E+02   .68462E+02  -.10042E+02
   .13830E+02   .68594E+02  -.10025E+02
   .13831E+02   .68701E+02  -.10008E+02
   .13832E+02   .68814E+02  -.99893E+01
   .13832E+02   .68917E+02  -.99705E+01
   .13833E+02   .69001E+02  -.99540E+01
   .13834E+02   .69110E+02  -.99342E+01
   .13835E+02   .69209E+02  -.99144E+01
   .13837E+02   .69344E+02  -.98946E+01
   .13838E+02   .69464E+02  -.98747E+01
   .13839E+02   .69536E+02  -.98681E+01
   .13840E+02   .69604E+02  -.98614E+01
   .13843E+02   .69793E+02  -.98584E+01
   .13845E+02   .69906E+02  -.98652E+01
   .13847E+02   .70013E+02  -.98770E+01
   .13850E+02   .70168E+02  -.99007E+01
   .13855E+02   .70416E+02  -.99467E+01
   .13860E+02   .70652E+02  -.99890E+01
   .13865E+02   .70878E+02  -.10020E+02
   .13870E+02   .71090E+02  -.10038E+02
   .13875E+02   .71287E+02  -.10043E+02
   .13880E+02   .71465E+02  -.10040E+02
   .13885E+02   .71627E+02  -.10031E+02
   .13890E+02   .71773E+02  -.10019E+02
   .13894E+02   .71879E+02  -.10010E+02
   .13898E+02   .71978E+02  -.10000E+02
   .13902E+02   .72070E+02  -.99940E+01
   .13905E+02   .72135E+02  -.99891E+01
   .13913E+02   .72299E+02  -.99824E+01
   .13920E+02   .72434E+02  -.99805E+01
   .13930E+02   .72615E+02  -.99788E+01
   .13940E+02   .72787E+02  -.99772E+01
   .13950E+02   .72948E+02  -.99673E+01
   .13960E+02   .73096E+02  -.99573E+01
   .13968E+02   .73207E+02  -.99450E+01
   .13975E+02   .73297E+02  -.99342E+01
   .13983E+02   .73395E+02  -.99223E+01
   .13990E+02   .73474E+02  -.99118E+01
   .14000E+02   .73582E+02  -.99016E+01
   .14010E+02   .73685E+02  -.98914E+01
   .14030E+02   .73879E+02  -.98710E+01
   .14050E+02   .74056E+02  -.98477E+01
   .14070E+02   .74216E+02  -.98245E+01
   .14085E+02   .74328E+02  -.98071E+01
   .14100E+02   .74433E+02  -.97896E+01
   .14120E+02   .74565E+02  -.97677E+01
   .14140E+02   .74688E+02  -.97458E+01
   .14160E+02   .74803E+02  -.97239E+01
   .14180E+02   .74911E+02  -.97019E+01
   .14195E+02   .74988E+02  -.96855E+01
   .14210E+02   .75062E+02  -.96690E+01
   .14230E+02   .75156E+02  -.96471E+01
   .14250E+02   .75245E+02  -.96252E+01
   .14270E+02   .75330E+02  -.96033E+01
   .14290E+02   .75410E+02  -.95814E+01
   .14330E+02   .75560E+02  -.95376E+01
   .14370E+02   .75698E+02  -.94938E+01
   .14400E+02   .75793E+02  -.94610E+01
   .14430E+02   .75883E+02  -.94277E+01
   .14470E+02   .75994E+02  -.93834E+01
   .14510E+02   .76096E+02  -.93390E+01
   .14550E+02   .76191E+02  -.92947E+01
   .14580E+02   .76257E+02  -.92620E+01
   .14620E+02   .76339E+02  -.92185E+01
   .14660E+02   .76414E+02  -.91750E+01
   .14700E+02   .76484E+02  -.91315E+01
   .14730E+02   .76532E+02  -.91010E+01
   .14770E+02   .76593E+02  -.90603E+01
   .14810E+02   .76650E+02  -.90196E+01
   .14850E+02   .76702E+02  -.89790E+01
   .14880E+02   .76739E+02  -.89493E+01
   .14920E+02   .76785E+02  -.89097E+01
   .15000E+02   .76866E+02  -.88305E+01
   .15015E+02   .76880E+02  -.88156E+01
   .15030E+02   .76893E+02  -.88006E+01
   .15042E+02   .76903E+02  -.87888E+01
   .15054E+02   .76912E+02  -.87770E+01
   .15130E+02   .76967E+02  -.87084E+01
   .15160E+02   .76985E+02  -.86814E+01
   .15200E+02   .77006E+02  -.86454E+01
   .15250E+02   .77027E+02  -.86004E+01
   .15300E+02   .77043E+02  -.85554E+01
   .15350E+02   .77054E+02  -.85103E+01
   .15400E+02   .77060E+02  -.84653E+01
   .15430E+02   .77061E+02  -.84383E+01
   .15470E+02   .77058E+02  -.84023E+01
   .15510E+02   .77052E+02  -.83663E+01
   .15550E+02   .77042E+02  -.83302E+01
   .15580E+02   .77032E+02  -.83032E+01
   .15620E+02   .77015E+02  -.82672E+01
   .15660E+02   .76992E+02  -.82312E+01
   .15700E+02   .76964E+02  -.81952E+01
   .15730E+02   .76939E+02  -.81682E+01
   .15770E+02   .76901E+02  -.81321E+01
   .15810E+02   .76855E+02  -.80961E+01
   .15850E+02   .76801E+02  -.80601E+01
   .15880E+02   .76755E+02  -.80331E+01
   .15920E+02   .76685E+02  -.79971E+01
   .15940E+02   .76645E+02  -.79791E+01
   .15960E+02   .76602E+02  -.79611E+01
   .15980E+02   .76555E+02  -.79430E+01
   .16000E+02   .76504E+02  -.79250E+01
   .16015E+02   .76462E+02  -.79115E+01
   .16030E+02   .76418E+02  -.78980E+01
   .16050E+02   .76354E+02  -.78800E+01
   .16070E+02   .76283E+02  -.78620E+01
   .16090E+02   .76204E+02  -.78440E+01
   .16110E+02   .76116E+02  -.78260E+01
   .16130E+02   .76017E+02  -.78080E+01
   .16150E+02   .75903E+02  -.77900E+01
   .16165E+02   .75807E+02  -.77765E+01
   .16173E+02   .75750E+02  -.77693E+01
   .16180E+02   .75697E+02  -.77629E+01
   .16190E+02   .75616E+02  -.77540E+01
   .16200E+02   .75526E+02  -.77449E+01
   .16210E+02   .75426E+02  -.77359E+01
   .16220E+02   .75313E+02  -.77269E+01
   .16225E+02   .75251E+02  -.77224E+01
   .16230E+02   .75185E+02  -.77179E+01
   .16235E+02   .75113E+02  -.77134E+01
   .16240E+02   .75035E+02  -.77089E+01
   .16245E+02   .74949E+02  -.77044E+01
   .16250E+02   .74855E+02  -.76999E+01
   .16255E+02   .74751E+02  -.76954E+01
   .16260E+02   .74633E+02  -.76909E+01
   .16264E+02   .74527E+02  -.76873E+01
   .16268E+02   .74407E+02  -.76837E+01
   .16270E+02   .74341E+02  -.76819E+01
   .16272E+02   .74270E+02  -.76801E+01
   .16274E+02   .74193E+02  -.76783E+01
   .16276E+02   .74109E+02  -.76765E+01
   .16278E+02   .74017E+02  -.76747E+01
   .16280E+02   .73915E+02  -.76729E+01
   .16282E+02   .73800E+02  -.76711E+01
   .16284E+02   .73670E+02  -.76693E+01
   .16285E+02   .73597E+02  -.76684E+01
   .16286E+02   .73519E+02  -.76675E+01
   .16287E+02   .73433E+02  -.76666E+01
   .16288E+02   .73338E+02  -.76657E+01
   .16289E+02   .73232E+02  -.76648E+01
   .16290E+02   .73112E+02  -.76639E+01
   .16291E+02   .73029E+02  -.76634E+01
   .16291E+02   .72930E+02  -.76628E+01
   .16291E+02   .72922E+02  -.76930E+01
   .16292E+02   .72907E+02  -.77534E+01
   .16292E+02   .72882E+02  -.76623E+01
   .16292E+02   .72784E+02  -.76619E+01
   .16293E+02   .72683E+02  -.76615E+01
   .16293E+02   .72596E+02  -.76611E+01
   .16294E+02   .72475E+02  -.76607E+01
   .16294E+02   .72366E+02  -.76604E+01
   .16295E+02   .72205E+02  -.76600E+01
   .16295E+02   .72002E+02  -.76596E+01
   .16296E+02   .71703E+02  -.76592E+01
   .16296E+02   .71694E+02  -.78362E+01
   .16296E+02   .71684E+02  -.81903E+01
   .16296E+02   .71624E+02  -.76587E+01
   .16296E+02   .71420E+02  -.76585E+01
   .16297E+02   .71149E+02  -.76583E+01
   .16297E+02   .70658E+02  -.76581E+01
   .16297E+02   .70204E+02  -.76580E+01
   .16297E+02   .70386E+02  -.87594E+01
   .16297E+02   .70737E+02  -.10962E+02
   .16298E+02   .70830E+02  -.76575E+01
   .16298E+02   .70116E+02  -.10294E+02
   .16298E+02   .69843E+02  -.87565E+01
   .16298E+02   .70376E+02  -.90903E+01
   .16299E+02   .70933E+02  -.12954E+02
   .16299E+02   .72173E+02  -.98959E+01
   .16299E+02   .71983E+02  -.99547E+01
   .16299E+02   .71892E+02  -.10029E+02
   .16299E+02   .71856E+02  -.10089E+02
   .16300E+02   .71857E+02  -.10149E+02
   .16300E+02   .71877E+02  -.10208E+02
   .16300E+02   .71909E+02  -.10266E+02
   .16301E+02   .71995E+02  -.10363E+02
   .16301E+02   .72071E+02  -.10424E+02
   .16301E+02   .72174E+02  -.10492E+02
   .16302E+02   .72275E+02  -.10548E+02
   .16302E+02   .72376E+02  -.10598E+02
   .16302E+02   .72502E+02  -.10647E+02
   .16303E+02   .72620E+02  -.10678E+02
   .16303E+02   .72729E+02  -.10703E+02
   .16304E+02   .72835E+02  -.10721E+02
   .16305E+02   .72931E+02  -.10729E+02
   .16305E+02   .73021E+02  -.10735E+02
   .16306E+02   .73104E+02  -.10735E+02
   .16306E+02   .73181E+02  -.10734E+02
   .16306E+02   .73252E+02  -.10730E+02
   .16307E+02   .73319E+02  -.10726E+02
   .16308E+02   .73381E+02  -.10719E+02
   .16308E+02   .73438E+02  -.10712E+02
   .16309E+02   .73542E+02  -.10695E+02
   .16310E+02   .73633E+02  -.10679E+02
   .16311E+02   .73714E+02  -.10662E+02
   .16312E+02   .73785E+02  -.10645E+02
   .16313E+02   .73849E+02  -.10630E+02
   .16314E+02   .73906E+02  -.10616E+02
   .16315E+02   .73957E+02  -.10604E+02
   .16316E+02   .74005E+02  -.10593E+02
   .16318E+02   .74088E+02  -.10577E+02
   .16320E+02   .74159E+02  -.10567E+02
   .16322E+02   .74222E+02  -.10563E+02
   .16324E+02   .74281E+02  -.10566E+02
   .16326E+02   .74337E+02  -.10568E+02
   .16330E+02   .74443E+02  -.10583E+02
   .16335E+02   .74569E+02  -.10607E+02
   .16340E+02   .74690E+02  -.10629E+02
   .16345E+02   .74806E+02  -.10644E+02
   .16350E+02   .74916E+02  -.10652E+02
   .16355E+02   .75018E+02  -.10653E+02
   .16360E+02   .75110E+02  -.10649E+02
   .16365E+02   .75192E+02  -.10642E+02
   .16370E+02   .75265E+02  -.10634E+02
   .16375E+02   .75332E+02  -.10628E+02
   .16380E+02   .75395E+02  -.10622E+02
   .16385E+02   .75453E+02  -.10616E+02
   .16390E+02   .75506E+02  -.10610E+02
   .16400E+02   .75605E+02  -.10605E+02
   .16410E+02   .75699E+02  -.10600E+02
   .16420E+02   .75786E+02  -.10591E+02
   .16430E+02   .75865E+02  -.10581E+02
   .16440E+02   .75937E+02  -.10572E+02
   .16450E+02   .76005E+02  -.10562E+02
   .16460E+02   .76068E+02  -.10552E+02
   .16470E+02   .76126E+02  -.10541E+02
   .16480E+02   .76180E+02  -.10531E+02
   .16490E+02   .76231E+02  -.10521E+02
   .16500E+02   .76280E+02  -.10510E+02
   .16510E+02   .76329E+02  -.10500E+02
   .16520E+02   .76367E+02  -.10490E+02
   .16530E+02   .76407E+02  -.10479E+02
   .16550E+02   .76481E+02  -.10458E+02
   .16570E+02   .76547E+02  -.10438E+02
   .16590E+02   .76605E+02  -.10417E+02
   .16610E+02   .76655E+02  -.10397E+02
   .16630E+02   .76701E+02  -.10377E+02
   .16650E+02   .76741E+02  -.10357E+02
   .16670E+02   .76773E+02  -.10337E+02
   .16690E+02   .76800E+02  -.10317E+02
   .16710E+02   .76821E+02  -.10297E+02
   .16730E+02   .76834E+02  -.10277E+02
   .16750E+02   .76839E+02  -.10257E+02
   .16770E+02   .76836E+02  -.10237E+02
   .16790E+02   .76822E+02  -.10218E+02
   .16800E+02   .76810E+02  -.10208E+02
   .16810E+02   .76794E+02  -.10198E+02
   .16820E+02   .76773E+02  -.10188E+02
   .16830E+02   .76747E+02  -.10179E+02
   .16840E+02   .76715E+02  -.10169E+02
   .16850E+02   .76674E+02  -.10159E+02
   .16860E+02   .76623E+02  -.10149E+02
   .16865E+02   .76592E+02  -.10144E+02
   .16870E+02   .76557E+02  -.10139E+02
   .16875E+02   .76516E+02  -.10134E+02
   .16880E+02   .76469E+02  -.10129E+02
   .16885E+02   .76414E+02  -.10125E+02
   .16890E+02   .76348E+02  -.10120E+02
   .16894E+02   .76285E+02  -.10116E+02
   .16898E+02   .76209E+02  -.10112E+02
   .16902E+02   .76114E+02  -.10108E+02
   .16905E+02   .76025E+02  -.10105E+02
   .16907E+02   .75953E+02  -.10103E+02
   .16909E+02   .75867E+02  -.10101E+02
   .16911E+02   .75758E+02  -.10099E+02
   .16913E+02   .75616E+02  -.10097E+02
   .16915E+02   .75413E+02  -.10095E+02
   .16917E+02   .75068E+02  -.10093E+02
   .16919E+02   .74184E+02  -.10091E+02
   .16920E+02   .69758E+02  -.10090E+02
   .16920E+02   .71514E+02  -.16438E+02
   .16921E+02   .75026E+02  -.29135E+02
   .16921E+02   .80276E+02  -.10089E+02
   .16922E+02   .75678E+02  -.10088E+02
   .16923E+02   .71132E+02  -.10087E+02
   .16924E+02   .76257E+02  -.28731E+02
   .16924E+02   .81396E+02  -.10086E+02
   .16924E+02   .78214E+02  -.10086E+02
   .16925E+02   .77158E+02  -.10085E+02
   .16926E+02   .76616E+02  -.10085E+02
   .16926E+02   .76229E+02  -.10084E+02
   .16927E+02   .75891E+02  -.10083E+02
   .16927E+02   .75714E+02  -.10083E+02
   .16927E+02   .75519E+02  -.10083E+02
   .16928E+02   .75284E+02  -.10083E+02
   .16928E+02   .74969E+02  -.10082E+02
   .16928E+02   .74464E+02  -.10082E+02
   .16929E+02   .73480E+02  -.10082E+02
   .16929E+02   .74022E+02  -.12234E+02
   .16929E+02   .74560E+02  -.14387E+02
   .16929E+02   .75086E+02  -.16539E+02
   .16929E+02   .76137E+02  -.13310E+02
   .16929E+02   .76706E+02  -.10081E+02
   .16930E+02   .75736E+02  -.10081E+02
   .16930E+02   .74644E+02  -.10081E+02
   .16930E+02   .74751E+02  -.10081E+02
   .16930E+02   .75110E+02  -.14300E+02
   .16930E+02   .75273E+02  -.10535E+02
   .16930E+02   .75796E+02  -.10796E+02
   .16931E+02   .75824E+02  -.12326E+02
   .16931E+02   .76095E+02  -.11480E+02
   .16931E+02   .76079E+02  -.11482E+02
   .16931E+02   .76026E+02  -.11485E+02
   .16932E+02   .75999E+02  -.11488E+02
   .16932E+02   .75985E+02  -.11491E+02
   .16932E+02   .75995E+02  -.11493E+02
   .16932E+02   .75977E+02  -.11496E+02
   .16933E+02   .75977E+02  -.11503E+02
   .16933E+02   .75981E+02  -.11508E+02
   .16933E+02   .75989E+02  -.11514E+02
   .16934E+02   .76000E+02  -.11521E+02
   .16934E+02   .76012E+02  -.11528E+02
   .16934E+02   .76028E+02  -.11533E+02
   .16935E+02   .76044E+02  -.11538E+02
   .16935E+02   .76059E+02  -.11544E+02
   .16936E+02   .76075E+02  -.11549E+02
   .16937E+02   .76100E+02  -.11556E+02
   .16938E+02   .76121E+02  -.11562E+02
   .16938E+02   .76145E+02  -.11568E+02
   .16939E+02   .76165E+02  -.11574E+02
   .16940E+02   .76193E+02  -.11582E+02
   .16941E+02   .76220E+02  -.11589E+02
   .16943E+02   .76273E+02  -.11601E+02
   .16945E+02   .76324E+02  -.11613E+02
   .16948E+02   .76396E+02  -.11623E+02
   .16950E+02   .76443E+02  -.11630E+02
   .16952E+02   .76486E+02  -.11632E+02
   .16955E+02   .76549E+02  -.11635E+02
   .16958E+02   .76605E+02  -.11635E+02
   .16960E+02   .76641E+02  -.11634E+02
   .16963E+02   .76691E+02  -.11629E+02
   .16965E+02   .76722E+02  -.11625E+02
   .16967E+02   .76752E+02  -.11621E+02
   .16970E+02   .76793E+02  -.11616E+02
   .16974E+02   .76843E+02  -.11608E+02
   .16977E+02   .76877E+02  -.11603E+02
   .16981E+02   .76918E+02  -.11596E+02
   .16985E+02   .76957E+02  -.11588E+02
   .16993E+02   .77031E+02  -.11578E+02
   .17000E+02   .77090E+02  -.11570E+02
   .17008E+02   .77152E+02  -.11563E+02
   .17015E+02   .77205E+02  -.11558E+02
   .17023E+02   .77264E+02  -.11551E+02
   .17030E+02   .77313E+02  -.11546E+02
   .17040E+02   .77378E+02  -.11535E+02
   .17050E+02   .77438E+02  -.11524E+02
   .17060E+02   .77495E+02  -.11514E+02
   .17070E+02   .77549E+02  -.11503E+02
   .17085E+02   .77626E+02  -.11488E+02
   .17100E+02   .77698E+02  -.11473E+02
   .17120E+02   .77789E+02  -.11453E+02
   .17140E+02   .77873E+02  -.11432E+02
   .17155E+02   .77933E+02  -.11418E+02
   .17170E+02   .77991E+02  -.11403E+02
   .17200E+02   .78101E+02  -.11373E+02
   .17240E+02   .78235E+02  -.11333E+02
   .17270E+02   .78330E+02  -.11303E+02
   .17310E+02   .78448E+02  -.11264E+02
   .17340E+02   .78532E+02  -.11234E+02
   .17380E+02   .78637E+02  -.11194E+02
   .17410E+02   .78713E+02  -.11165E+02
   .17440E+02   .78785E+02  -.11136E+02
   .17460E+02   .78832E+02  -.11116E+02
   .17479E+02   .78875E+02  -.11097E+02
   .17540E+02   .79008E+02  -.11040E+02
   .17570E+02   .79071E+02  -.11012E+02
   .17600E+02   .79132E+02  -.10984E+02
   .17650E+02   .79229E+02  -.10937E+02
   .17700E+02   .79324E+02  -.10890E+02
   .17750E+02   .79414E+02  -.10844E+02
   .17800E+02   .79500E+02  -.10797E+02
   .17840E+02   .79566E+02  -.10760E+02
   .17880E+02   .79631E+02  -.10724E+02
   .17950E+02   .79739E+02  -.10660E+02
   .18020E+02   .79841E+02  -.10596E+02
   .18100E+02   .79953E+02  -.10523E+02
   .18180E+02   .80059E+02  -.10453E+02
   .18250E+02   .80148E+02  -.10393E+02
   .18320E+02   .80233E+02  -.10332E+02
   .18400E+02   .80327E+02  -.10262E+02
   .18470E+02   .80406E+02  -.10203E+02
   .18550E+02   .80493E+02  -.10136E+02
   .18630E+02   .80577E+02  -.10068E+02
   .18700E+02   .80646E+02  -.10009E+02
   .18800E+02   .80743E+02  -.99280E+01
   .18900E+02   .80834E+02  -.98470E+01
   .19000E+02   .80921E+02  -.97661E+01
   .19100E+02   .81005E+02  -.96851E+01
   .19180E+02   .81069E+02  -.96230E+01
   .19250E+02   .81124E+02  -.95687E+01
   .19320E+02   .81177E+02  -.95144E+01
   .19400E+02   .81236E+02  -.94524E+01
   .19470E+02   .81285E+02  -.93998E+01
   .19550E+02   .81340E+02  -.93397E+01
   .19630E+02   .81394E+02  -.92796E+01
   .19700E+02   .81439E+02  -.92270E+01
   .19780E+02   .81489E+02  -.91692E+01
   .19850E+02   .81532E+02  -.91186E+01
   .19930E+02   .81579E+02  -.90608E+01
   .20000E+02   .81619E+02  -.90102E+01
   .20070E+02   .81659E+02  -.89614E+01
   .20150E+02   .81702E+02  -.89057E+01
   .20230E+02   .81744E+02  -.88499E+01
   .20300E+02   .81780E+02  -.88011E+01
   .20380E+02   .81821E+02  -.87474E+01
   .20450E+02   .81855E+02  -.87004E+01
   .20520E+02   .81888E+02  -.86534E+01
   .20600E+02   .81925E+02  -.85997E+01
   .20680E+02   .81961E+02  -.85480E+01
   .20750E+02   .81992E+02  -.85028E+01
   .20820E+02   .82022E+02  -.84575E+01
   .20900E+02   .82055E+02  -.84058E+01
   .21000E+02   .82096E+02  -.83432E+01
   .21100E+02   .82135E+02  -.82805E+01
   .21180E+02   .82166E+02  -.82318E+01
   .21250E+02   .82192E+02  -.81893E+01
   .21320E+02   .82217E+02  -.81467E+01
   .21400E+02   .82246E+02  -.80981E+01
   .21500E+02   .82281E+02  -.80389E+01
   .21600E+02   .82315E+02  -.79797E+01
   .21680E+02   .82341E+02  -.79335E+01
   .21750E+02   .82363E+02  -.78931E+01
   .21820E+02   .82385E+02  -.78527E+01
   .21900E+02   .82409E+02  -.78065E+01
   .21960E+02   .82427E+02  -.77730E+01
   .22030E+02   .82447E+02  -.77339E+01
   .22100E+02   .82467E+02  -.76948E+01
   .22163E+02   .82485E+02  -.76597E+01
   .22230E+02   .82503E+02  -.76236E+01
   .22300E+02   .82522E+02  -.75858E+01
   .22400E+02   .82548E+02  -.75319E+01
   .22500E+02   .82573E+02  -.74780E+01
   .22600E+02   .82598E+02  -.74264E+01
   .22700E+02   .82622E+02  -.73747E+01
   .22800E+02   .82645E+02  -.73230E+01
   .22900E+02   .82668E+02  -.72713E+01
   .23000E+02   .82690E+02  -.72214E+01
   .23100E+02   .82712E+02  -.71715E+01
   .23200E+02   .82733E+02  -.71216E+01
   .23300E+02   .82753E+02  -.70717E+01
   .23380E+02   .82768E+02  -.70332E+01
   .23450E+02   .82782E+02  -.69995E+01
   .23520E+02   .82795E+02  -.69658E+01
   .23600E+02   .82809E+02  -.69273E+01
   .23700E+02   .82827E+02  -.68810E+01
   .23800E+02   .82844E+02  -.68347E+01
   .23900E+02   .82860E+02  -.67883E+01
   .24000E+02   .82877E+02  -.67420E+01
   .24070E+02   .82887E+02  -.67108E+01
   .24150E+02   .82900E+02  -.66752E+01
   .24230E+02   .82912E+02  -.66396E+01
   .24300E+02   .82922E+02  -.66084E+01
   .24400E+02   .82936E+02  -.65655E+01
   .24500E+02   .82950E+02  -.65225E+01
   .24600E+02   .82963E+02  -.64796E+01
   .24700E+02   .82977E+02  -.64367E+01
   .24780E+02   .82987E+02  -.64036E+01
   .24850E+02   .82995E+02  -.63747E+01
   .24930E+02   .83005E+02  -.63416E+01
   .25000E+02   .83014E+02  -.63127E+01
   .25070E+02   .83022E+02  -.62843E+01
   .25150E+02   .83032E+02  -.62519E+01
   .25230E+02   .83041E+02  -.62194E+01
   .25300E+02   .83048E+02  -.61910E+01
   .25380E+02   .83057E+02  -.61596E+01
   .25450E+02   .83064E+02  -.61321E+01
   .25600E+02   .83079E+02  -.60731E+01
   .25750E+02   .83093E+02  -.60160E+01
   .25900E+02   .83107E+02  -.59588E+01
   .26050E+02   .83119E+02  -.59033E+01
   .26200E+02   .83132E+02  -.58479E+01
   .26350E+02   .83143E+02  -.57941E+01
   .26500E+02   .83154E+02  -.57403E+01
   .26650E+02   .83165E+02  -.56881E+01
   .26800E+02   .83175E+02  -.56358E+01
   .26950E+02   .83184E+02  -.55851E+01
   .27100E+02   .83193E+02  -.55344E+01
   .27300E+02   .83205E+02  -.54690E+01
   .27470E+02   .83214E+02  -.54134E+01
   .27600E+02   .83220E+02  -.53722E+01
   .27800E+02   .83230E+02  -.53089E+01
   .27950E+02   .83236E+02  -.52628E+01
   .28100E+02   .83243E+02  -.52167E+01
   .28250E+02   .83249E+02  -.51717E+01
   .28400E+02   .83255E+02  -.51267E+01
   .28550E+02   .83260E+02  -.50829E+01
   .28700E+02   .83265E+02  -.50392E+01
   .28900E+02   .83271E+02  -.49827E+01
   .29100E+02   .83277E+02  -.49262E+01
   .29250E+02   .83280E+02  -.48852E+01
   .29400E+02   .83284E+02  -.48442E+01
   .29700E+02   .83291E+02  -.47642E+01
   .29850E+02   .83294E+02  -.47253E+01
   .30000E+02   .83296E+02  -.46865E+01
   .30200E+02   .83300E+02  -.46358E+01
   .30400E+02   .83303E+02  -.45852E+01
   .30600E+02   .83305E+02  -.45363E+01
   .30800E+02   .83307E+02  -.44874E+01
   .31000E+02   .83309E+02  -.44402E+01
   .31200E+02   .83310E+02  -.43930E+01
   .31500E+02   .83312E+02  -.43242E+01
   .31900E+02   .83313E+02  -.42351E+01
   .32300E+02   .83313E+02  -.41490E+01
   .32600E+02   .83312E+02  -.40862E+01
   .33000E+02   .83311E+02  -.40049E+01
   .33400E+02   .83309E+02  -.39251E+01
   .33800E+02   .83306E+02  -.38478E+01
   .34100E+02   .83303E+02  -.37915E+01
   .34500E+02   .83299E+02  -.37183E+01
   .34900E+02   .83294E+02  -.36474E+01
   .35300E+02   .83288E+02  -.35785E+01
   .35700E+02   .83282E+02  -.35116E+01
   .36030E+02   .83276E+02  -.34579E+01
   .36500E+02   .83268E+02  -.33837E+01
   .37000E+02   .83258E+02  -.33075E+01
   .37500E+02   .83248E+02  -.32339E+01
   .38000E+02   .83238E+02  -.31630E+01
   .38500E+02   .83227E+02  -.30944E+01
   .39000E+02   .83215E+02  -.30282E+01
   .39500E+02   .83204E+02  -.29642E+01
   .40000E+02   .83192E+02  -.29024E+01
   .40800E+02   .83173E+02  -.28067E+01
   .41500E+02   .83155E+02  -.27271E+01
   .42300E+02   .83135E+02  -.26405E+01
   .43000E+02   .83116E+02  -.25682E+01
   .43800E+02   .83095E+02  -.24890E+01
   .44500E+02   .83076E+02  -.24228E+01
   .45300E+02   .83054E+02  -.23505E+01
   .46000E+02   .83035E+02  -.22900E+01
   .46500E+02   .83021E+02  -.22482E+01
   .47000E+02   .83007E+02  -.22076E+01
   .47500E+02   .82993E+02  -.21682E+01
   .48000E+02   .82979E+02  -.21299E+01
   .49000E+02   .82951E+02  -.20564E+01
   .49500E+02   .82938E+02  -.20212E+01
   .50000E+02   .82924E+02  -.19869E+01
   .50800E+02   .82901E+02  -.19334E+01
   .51500E+02   .82882E+02  -.18886E+01
   .52300E+02   .82859E+02  -.18392E+01
   .53000E+02   .82840E+02  -.17977E+01
   .53600E+02   .82823E+02  -.17633E+01
   .54100E+02   .82809E+02  -.17354E+01
   .55211E+02   .82778E+02  -.16758E+01
   .55800E+02   .82761E+02  -.16454E+01
   .56400E+02   .82744E+02  -.16154E+01
   .57530E+02   .82712E+02  -.15610E+01
   .58500E+02   .82685E+02  -.15166E+01
   .59540E+02   .82655E+02  -.14711E+01
   .59800E+02   .82647E+02  -.14601E+01
   .60000E+02   .82642E+02  -.14517E+01
   .60800E+02   .82619E+02  -.14188E+01
   .61500E+02   .82599E+02  -.13909E+01
   .62300E+02   .82575E+02  -.13601E+01
   .63000E+02   .82555E+02  -.13340E+01
   .64000E+02   .82525E+02  -.12981E+01
   .65000E+02   .82496E+02  -.12637E+01
   .65900E+02   .82468E+02  -.12338E+01
   .66830E+02   .82440E+02  -.12041E+01
   .67400E+02   .82422E+02  -.11864E+01
   .68000E+02   .82404E+02  -.11683E+01
   .69000E+02   .82372E+02  -.11390E+01
   .70000E+02   .82339E+02  -.11108E+01
   .71000E+02   .82306E+02  -.10837E+01
   .72000E+02   .82271E+02  -.10575E+01
   .72800E+02   .82243E+02  -.10376E+01
   .73500E+02   .82218E+02  -.10201E+01
   .74200E+02   .82192E+02  -.10036E+01
   .74960E+02   .82163E+02  -.98565E+00
   .75500E+02   .82142E+02  -.97337E+00
   .76000E+02   .82121E+02  -.96221E+00
   .76600E+02   .82097E+02  -.94920E+00
   .77110E+02   .82075E+02  -.93814E+00
   .77900E+02   .82041E+02  -.92179E+00
   .78600E+02   .82009E+02  -.90730E+00
   .79300E+02   .81976E+02  -.89336E+00
   .79700E+02   .81956E+02  -.88558E+00
   .80000E+02   .81941E+02  -.87975E+00
   .80800E+02   .81899E+02  -.86474E+00
   .81500E+02   .81861E+02  -.85160E+00
   .81900E+02   .81838E+02  -.84446E+00
   .82300E+02   .81814E+02  -.83733E+00
   .82700E+02   .81789E+02  -.83019E+00
   .83000E+02   .81770E+02  -.82484E+00
   .83500E+02   .81737E+02  -.81628E+00
   .84000E+02   .81702E+02  -.80773E+00
   .84500E+02   .81666E+02  -.79945E+00
   .84800E+02   .81643E+02  -.79448E+00
   .85000E+02   .81627E+02  -.79116E+00
   .85400E+02   .81594E+02  -.78480E+00
   .85800E+02   .81560E+02  -.77844E+00
   .86200E+02   .81524E+02  -.77208E+00
   .86500E+02   .81495E+02  -.76730E+00
   .86900E+02   .81455E+02  -.76124E+00
   .87300E+02   .81413E+02  -.75517E+00
   .87700E+02   .81367E+02  -.74910E+00
   .88000E+02   .81331E+02  -.74455E+00
   .88300E+02   .81292E+02  -.74018E+00
   .88500E+02   .81265E+02  -.73726E+00
   .88800E+02   .81222E+02  -.73289E+00
   .89000E+02   .81192E+02  -.72997E+00
   .89300E+02   .81144E+02  -.72573E+00
   .89500E+02   .81110E+02  -.72290E+00
   .89800E+02   .81056E+02  -.71866E+00
   .90000E+02   .81017E+02  -.71583E+00
   .90150E+02   .80986E+02  -.71376E+00
   .90300E+02   .80953E+02  -.71169E+00
   .90400E+02   .80931E+02  -.71031E+00
   .90500E+02   .80908E+02  -.70893E+00
   .90650E+02   .80871E+02  -.70685E+00
   .90800E+02   .80833E+02  -.70478E+00
   .90900E+02   .80806E+02  -.70340E+00
   .91000E+02   .80778E+02  -.70202E+00
   .91150E+02   .80734E+02  -.70001E+00
   .91300E+02   .80686E+02  -.69800E+00
   .91400E+02   .80653E+02  -.69666E+00
   .91500E+02   .80618E+02  -.69532E+00
   .91650E+02   .80561E+02  -.69331E+00
   .91800E+02   .80500E+02  -.69130E+00
   .91900E+02   .80455E+02  -.68996E+00
   .92000E+02   .80408E+02  -.68862E+00
   .92100E+02   .80357E+02  -.68733E+00
   .92200E+02   .80303E+02  -.68604E+00
   .92300E+02   .80244E+02  -.68475E+00
   .92400E+02   .80179E+02  -.68346E+00
   .92470E+02   .80130E+02  -.68255E+00
   .92550E+02   .80070E+02  -.68152E+00
   .92630E+02   .80004E+02  -.68049E+00
   .92670E+02   .79969E+02  -.67997E+00
   .92700E+02   .79941E+02  -.67958E+00
   .92750E+02   .79893E+02  -.67894E+00
   .92800E+02   .79841E+02  -.67829E+00
   .92850E+02   .79785E+02  -.67765E+00
   .92900E+02   .79724E+02  -.67700E+00
   .92950E+02   .79658E+02  -.67636E+00
   .92970E+02   .79630E+02  -.67610E+00
   .93000E+02   .79585E+02  -.67571E+00
   .93020E+02   .79554E+02  -.67545E+00
   .93050E+02   .79505E+02  -.67507E+00
   .93070E+02   .79470E+02  -.67481E+00
   .93100E+02   .79414E+02  -.67442E+00
   .93130E+02   .79354E+02  -.67404E+00
   .93150E+02   .79311E+02  -.67378E+00
   .93170E+02   .79266E+02  -.67352E+00
   .93200E+02   .79192E+02  -.67313E+00
   .93220E+02   .79138E+02  -.67287E+00
   .93235E+02   .79095E+02  -.67268E+00
   .93250E+02   .79049E+02  -.67249E+00
   .93265E+02   .79001E+02  -.67229E+00
   .93280E+02   .78949E+02  -.67210E+00
   .93290E+02   .78912E+02  -.67197E+00
   .93300E+02   .78874E+02  -.67184E+00
   .93315E+02   .78812E+02  -.67165E+00
   .93330E+02   .78745E+02  -.67145E+00
   .93340E+02   .78696E+02  -.67132E+00
   .93350E+02   .78645E+02  -.67119E+00
   .93365E+02   .78560E+02  -.67100E+00
   .93380E+02   .78464E+02  -.67081E+00
   .93390E+02   .78393E+02  -.67068E+00
   .93400E+02   .78314E+02  -.67055E+00
   .93410E+02   .78226E+02  -.67042E+00
   .93415E+02   .78178E+02  -.67036E+00
   .93420E+02   .78127E+02  -.67029E+00
   .93428E+02   .78037E+02  -.67019E+00
   .93435E+02   .77949E+02  -.67010E+00
   .93439E+02   .77893E+02  -.67005E+00
   .93443E+02   .77833E+02  -.66999E+00
   .93446E+02   .77785E+02  -.66996E+00
   .93450E+02   .77715E+02  -.66990E+00
   .93455E+02   .77617E+02  -.66984E+00
   .93460E+02   .77505E+02  -.66978E+00
   .93463E+02   .77429E+02  -.66974E+00
   .93465E+02   .77373E+02  -.66971E+00
   .93468E+02   .77281E+02  -.66967E+00
   .93470E+02   .77213E+02  -.66965E+00
   .93473E+02   .77096E+02  -.66961E+00
   .93476E+02   .76957E+02  -.66957E+00
   .93479E+02   .76787E+02  -.66953E+00
   .93481E+02   .76646E+02  -.66950E+00
   .93484E+02   .76365E+02  -.66947E+00
   .93485E+02   .76243E+02  -.66945E+00
   .93486E+02   .76097E+02  -.66944E+00
   .93488E+02   .75813E+02  -.66942E+00
   .93489E+02   .75383E+02  -.66940E+00
   .93490E+02   .74749E+02  -.66938E+00
   .93492E+02   .73363E+02  -.66937E+00
   .93492E+02   .73378E+02  -.12034E+01
   .93492E+02   .73544E+02  -.17374E+01
   .93492E+02   .73706E+02  -.22715E+01
   .93492E+02   .74032E+02  -.33395E+01
   .93493E+02   .74846E+02  -.60097E+01
   .93493E+02   .76301E+02  -.10816E+02
   .93494E+02   .77901E+02  -.54756E+01
   .93495E+02   .79269E+02  -.66932E+00
   .93497E+02   .77446E+02  -.66930E+00
   .93499E+02   .76222E+02  -.66928E+00
   .93501E+02   .76340E+02  -.37177E+01
   .93502E+02   .76424E+02  -.12850E+01
   .93504E+02   .75964E+02  -.24049E+01
   .93505E+02   .76050E+02  -.29034E+01
   .93506E+02   .76332E+02  -.29190E+01
   .93506E+02   .76495E+02  -.29251E+01
   .93507E+02   .76544E+02  -.29313E+01
   .93507E+02   .76617E+02  -.29422E+01
   .93509E+02   .76737E+02  -.29658E+01
   .93510E+02   .76802E+02  -.29815E+01
   .93511E+02   .76863E+02  -.29974E+01
   .93512E+02   .76916E+02  -.30081E+01
   .93513E+02   .76967E+02  -.30188E+01
   .93514E+02   .77003E+02  -.30273E+01
   .93515E+02   .77033E+02  -.30348E+01
   .93516E+02   .77097E+02  -.30511E+01
   .93517E+02   .77137E+02  -.30597E+01
   .93518E+02   .77176E+02  -.30684E+01
   .93519E+02   .77213E+02  -.30749E+01
   .93520E+02   .77248E+02  -.30814E+01
   .93521E+02   .77298E+02  -.30912E+01
   .93523E+02   .77347E+02  -.31011E+01
   .93525E+02   .77411E+02  -.31102E+01
   .93527E+02   .77471E+02  -.31151E+01
   .93529E+02   .77512E+02  -.31187E+01
   .93530E+02   .77553E+02  -.31224E+01
   .93532E+02   .77590E+02  -.31223E+01
   .93533E+02   .77629E+02  -.31222E+01
   .93535E+02   .77675E+02  -.31220E+01
   .93538E+02   .77739E+02  -.31181E+01
   .93540E+02   .77779E+02  -.31154E+01
   .93543E+02   .77833E+02  -.31101E+01
   .93545E+02   .77866E+02  -.31065E+01
   .93548E+02   .77913E+02  -.31014E+01
   .93550E+02   .77941E+02  -.30980E+01
   .93553E+02   .77981E+02  -.30940E+01
   .93555E+02   .78006E+02  -.30913E+01
   .93560E+02   .78063E+02  -.30873E+01
   .93565E+02   .78116E+02  -.30858E+01
   .93570E+02   .78165E+02  -.30863E+01
   .93578E+02   .78239E+02  -.30900E+01
   .93585E+02   .78300E+02  -.30940E+01
   .93593E+02   .78367E+02  -.30979E+01
   .93600E+02   .78422E+02  -.30998E+01
   .93608E+02   .78482E+02  -.31001E+01
   .93615E+02   .78531E+02  -.30990E+01
   .93623E+02   .78582E+02  -.30968E+01
   .93630E+02   .78623E+02  -.30949E+01
   .93635E+02   .78651E+02  -.30941E+01
   .93640E+02   .78678E+02  -.30932E+01
   .93650E+02   .78729E+02  -.30915E+01
   .93665E+02   .78799E+02  -.30924E+01
   .93680E+02   .78864E+02  -.30933E+01
   .93690E+02   .78905E+02  -.30939E+01
   .93700E+02   .78946E+02  -.30945E+01
   .93715E+02   .79002E+02  -.30932E+01
   .93730E+02   .79054E+02  -.30918E+01
   .93740E+02   .79087E+02  -.30910E+01
   .93750E+02   .79117E+02  -.30901E+01
   .93770E+02   .79176E+02  -.30896E+01
   .93800E+02   .79258E+02  -.30890E+01
   .93820E+02   .79308E+02  -.30881E+01
   .93850E+02   .79378E+02  -.30866E+01
   .93880E+02   .79442E+02  -.30852E+01
   .93900E+02   .79482E+02  -.30842E+01
   .93920E+02   .79520E+02  -.30834E+01
   .93950E+02   .79574E+02  -.30821E+01
   .93970E+02   .79608E+02  -.30813E+01
   .94000E+02   .79657E+02  -.30800E+01
   .94020E+02   .79688E+02  -.30792E+01
   .94050E+02   .79732E+02  -.30779E+01
   .94100E+02   .79801E+02  -.30758E+01
   .94150E+02   .79866E+02  -.30731E+01
   .94200E+02   .79925E+02  -.30705E+01
   .94250E+02   .79980E+02  -.30678E+01
   .94300E+02   .80032E+02  -.30651E+01
   .94350E+02   .80081E+02  -.30618E+01
   .94400E+02   .80127E+02  -.30585E+01
   .94450E+02   .80170E+02  -.30552E+01
   .94500E+02   .80210E+02  -.30519E+01
   .94550E+02   .80248E+02  -.30496E+01
   .94600E+02   .80285E+02  -.30474E+01
   .94650E+02   .80321E+02  -.30451E+01
   .94700E+02   .80354E+02  -.30428E+01
   .94780E+02   .80406E+02  -.30400E+01
   .94850E+02   .80449E+02  -.30375E+01
   .94920E+02   .80491E+02  -.30348E+01
   .95000E+02   .80536E+02  -.30318E+01
   .95080E+02   .80580E+02  -.30275E+01
   .95150E+02   .80616E+02  -.30238E+01
   .95230E+02   .80655E+02  -.30195E+01
   .95300E+02   .80688E+02  -.30158E+01
   .95400E+02   .80733E+02  -.30094E+01
   .95500E+02   .80774E+02  -.30030E+01
   .95650E+02   .80833E+02  -.29953E+01
   .95800E+02   .80887E+02  -.29876E+01
   .95900E+02   .80922E+02  -.29824E+01
   .96000E+02   .80954E+02  -.29773E+01
   .96150E+02   .81001E+02  -.29710E+01
   .96300E+02   .81046E+02  -.29648E+01
   .96400E+02   .81075E+02  -.29607E+01
   .96500E+02   .81103E+02  -.29566E+01
   .96650E+02   .81143E+02  -.29506E+01
   .96800E+02   .81182E+02  -.29446E+01
   .97000E+02   .81232E+02  -.29366E+01
   .97200E+02   .81279E+02  -.29274E+01
   .97400E+02   .81324E+02  -.29183E+01
   .97600E+02   .81367E+02  -.29092E+01
   .97800E+02   .81408E+02  -.29001E+01
   .98000E+02   .81447E+02  -.28900E+01
   .98200E+02   .81484E+02  -.28799E+01
   .98350E+02   .81510E+02  -.28723E+01
   .98500E+02   .81535E+02  -.28648E+01
   .98700E+02   .81568E+02  -.28551E+01
   .98900E+02   .81599E+02  -.28454E+01
   .99100E+02   .81629E+02  -.28357E+01
   .99300E+02   .81658E+02  -.28261E+01
   .99500E+02   .81686E+02  -.28167E+01
   .99700E+02   .81712E+02  -.28074E+01
   .99850E+02   .81731E+02  -.28005E+01
   .99920E+02   .81740E+02  -.27973E+01
   .10000E+03   .81750E+02  -.27936E+01
   .10040E+03   .81798E+02  -.27775E+01
   .10080E+03   .81843E+02  -.27615E+01
   .10120E+03   .81887E+02  -.27455E+01
   .10150E+03   .81918E+02  -.27334E+01
   .10190E+03   .81958E+02  -.27174E+01
   .10230E+03   .81997E+02  -.27013E+01
   .10270E+03   .82033E+02  -.26853E+01
   .10300E+03   .82060E+02  -.26732E+01
   .10330E+03   .82085E+02  -.26614E+01
   .10350E+03   .82101E+02  -.26536E+01
   .10400E+03   .82141E+02  -.26339E+01
   .10450E+03   .82179E+02  -.26142E+01
   .10480E+03   .82201E+02  -.26024E+01
   .10500E+03   .82215E+02  -.25946E+01
   .10540E+03   .82242E+02  -.25792E+01
   .10580E+03   .82269E+02  -.25638E+01
   .10620E+03   .82294E+02  -.25483E+01
   .10650E+03   .82313E+02  -.25368E+01
   .10690E+03   .82337E+02  -.25213E+01
   .10730E+03   .82359E+02  -.25059E+01
   .10770E+03   .82381E+02  -.24905E+01
   .10800E+03   .82397E+02  -.24790E+01
   .10830E+03   .82412E+02  -.24678E+01
   .10850E+03   .82422E+02  -.24605E+01
   .10900E+03   .82447E+02  -.24420E+01
   .10950E+03   .82470E+02  -.24239E+01
   .11000E+03   .82493E+02  -.24058E+01
   .11040E+03   .82510E+02  -.23918E+01
   .11080E+03   .82526E+02  -.23778E+01
   .11120E+03   .82543E+02  -.23638E+01
   .11150E+03   .82554E+02  -.23533E+01
   .11190E+03   .82569E+02  -.23400E+01
   .11230E+03   .82584E+02  -.23266E+01
   .11300E+03   .82609E+02  -.23033E+01
   .11350E+03   .82626E+02  -.22872E+01
   .11400E+03   .82642E+02  -.22712E+01
   .11450E+03   .82658E+02  -.22555E+01
   .11500E+03   .82674E+02  -.22398E+01
   .11580E+03   .82697E+02  -.22155E+01
   .11650E+03   .82717E+02  -.21943E+01
   .11730E+03   .82738E+02  -.21708E+01
   .11800E+03   .82756E+02  -.21503E+01
   .11850E+03   .82769E+02  -.21360E+01
   .11900E+03   .82781E+02  -.21218E+01
   .11950E+03   .82792E+02  -.21079E+01
   .12000E+03   .82803E+02  -.20940E+01
   .12050E+03   .82814E+02  -.20805E+01
   .12100E+03   .82825E+02  -.20671E+01
   .12150E+03   .82836E+02  -.20536E+01
   .12200E+03   .82846E+02  -.20402E+01
   .12250E+03   .82856E+02  -.20272E+01
   .12300E+03   .82865E+02  -.20142E+01
   .12350E+03   .82875E+02  -.20012E+01
   .12400E+03   .82884E+02  -.19882E+01
   .12440E+03   .82891E+02  -.19782E+01
   .12480E+03   .82898E+02  -.19681E+01
   .12550E+03   .82910E+02  -.19504E+01
   .12630E+03   .82923E+02  -.19309E+01
   .12700E+03   .82933E+02  -.19138E+01
   .12780E+03   .82945E+02  -.18949E+01
   .12850E+03   .82955E+02  -.18783E+01
   .12930E+03   .82967E+02  -.18599E+01
   .13000E+03   .82976E+02  -.18438E+01
   .13080E+03   .82987E+02  -.18256E+01
   .13150E+03   .82995E+02  -.18097E+01
   .13230E+03   .83005E+02  -.17921E+01
   .13300E+03   .83012E+02  -.17767E+01
   .13380E+03   .83021E+02  -.17595E+01
   .13450E+03   .83029E+02  -.17445E+01
   .13530E+03   .83037E+02  -.17278E+01
   .13600E+03   .83044E+02  -.17131E+01
   .13680E+03   .83051E+02  -.16968E+01
   .13750E+03   .83057E+02  -.16825E+01
   .13830E+03   .83064E+02  -.16666E+01
   .13900E+03   .83070E+02  -.16527E+01
   .13980E+03   .83076E+02  -.16373E+01
   .14050E+03   .83081E+02  -.16239E+01
   .14130E+03   .83087E+02  -.16091E+01
   .14200E+03   .83091E+02  -.15961E+01
   .14300E+03   .83098E+02  -.15781E+01
   .14400E+03   .83104E+02  -.15602E+01
   .14540E+03   .83113E+02  -.15358E+01
   .14570E+03   .83114E+02  -.15307E+01
   .14600E+03   .83116E+02  -.15255E+01
   .14670E+03   .83120E+02  -.15137E+01
   .14800E+03   .83126E+02  -.14921E+01
   .14900E+03   .83131E+02  -.14759E+01
   .14950E+03   .83134E+02  -.14679E+01
   .15000E+03   .83136E+02  -.14599E+01
   .15200E+03   .83145E+02  -.14287E+01
   .15400E+03   .83152E+02  -.13986E+01
   .15600E+03   .83159E+02  -.13695E+01
   .15800E+03   .83166E+02  -.13413E+01
   .16000E+03   .83171E+02  -.13141E+01
   .16200E+03   .83176E+02  -.12877E+01
   .16350E+03   .83180E+02  -.12687E+01
   .16500E+03   .83183E+02  -.12498E+01
   .16700E+03   .83186E+02  -.12255E+01
   .16900E+03   .83190E+02  -.12019E+01
   .17100E+03   .83193E+02  -.11791E+01
   .17300E+03   .83195E+02  -.11569E+01
   .17500E+03   .83197E+02  -.11354E+01
   .17700E+03   .83199E+02  -.11146E+01
   .18000E+03   .83201E+02  -.10845E+01
   .18300E+03   .83203E+02  -.10557E+01
   .18500E+03   .83204E+02  -.10372E+01
   .18800E+03   .83205E+02  -.10104E+01
   .19000E+03   .83205E+02  -.99321E+00
   .19300E+03   .83205E+02  -.96824E+00
   .19500E+03   .83205E+02  -.95215E+00
   .19800E+03   .83205E+02  -.92881E+00
   .20000E+03   .83205E+02  -.91375E+00
