    E(keV)         f1           f2     
   .10000E+01   .52674E+02  -.40880E+02
   .10100E+01   .53112E+02  -.40590E+02
   .10200E+01   .53522E+02  -.40299E+02
   .10300E+01   .53902E+02  -.40008E+02
   .10410E+01   .54274E+02  -.39688E+02
   .10480E+01   .54488E+02  -.39482E+02
   .10550E+01   .54682E+02  -.39277E+02
   .10630E+01   .54857E+02  -.39043E+02
   .10700E+01   .54964E+02  -.38837E+02
   .10770E+01   .55007E+02  -.38632E+02
   .10810E+01   .54989E+02  -.38515E+02
   .10840E+01   .54943E+02  -.38427E+02
   .10880E+01   .54813E+02  -.38310E+02
   .10910E+01   .54635E+02  -.38222E+02
   .10930E+01   .54450E+02  -.38163E+02
   .10950E+01   .54172E+02  -.38104E+02
   .10970E+01   .53720E+02  -.38046E+02
   .10987E+01   .52226E+02  -.37995E+02
   .10987E+01   .53013E+02  -.40877E+02
   .10988E+01   .53799E+02  -.37993E+02
   .10993E+01   .52607E+02  -.37977E+02
   .10999E+01   .48194E+02  -.37961E+02
   .10999E+01   .52307E+02  -.52887E+02
   .10999E+01   .56419E+02  -.37959E+02
   .11012E+01   .50378E+02  -.37923E+02
   .11025E+01   .23279E+01  -.37886E+02
   .11025E+01   .42882E+02  -.18622E+03
   .11025E+01   .83403E+02  -.37885E+02
   .11028E+01   .36042E+02  -.37878E+02
   .11030E+01  -.15662E+03  -.37871E+02
   .11030E+01   .55424E+02  -.80636E+03
   .11031E+01   .26748E+03  -.37870E+02
   .11036E+01   .63792E+02  -.37855E+02
   .11041E+01   .42429E+02  -.37839E+02
   .11042E+01   .58167E+02  -.95446E+02
   .11042E+01   .73906E+02  -.37838E+02
   .11045E+01   .56833E+02  -.37829E+02
   .11048E+01   .33584E+02  -.37820E+02
   .11048E+01   .61290E+02  -.11696E+03
   .11048E+01   .79765E+02  -.37819E+02
   .11049E+01   .59287E+02  -.37816E+02
   .11050E+01   .52051E+02  -.37813E+02
   .11051E+01   .57479E+02  -.58729E+02
   .11051E+01   .62921E+02  -.37812E+02
   .11052E+01   .56438E+02  -.37808E+02
   .11053E+01   .47982E+02  -.37805E+02
   .11053E+01   .57107E+02  -.69730E+02
   .11054E+01   .65559E+02  -.37804E+02
   .11054E+01   .58532E+02  -.37803E+02
   .11054E+01   .55028E+02  -.37802E+02
   .11055E+01   .57095E+02  -.47777E+02
   .11055E+01   .59214E+02  -.37800E+02
   .11055E+01   .56291E+02  -.37799E+02
   .11056E+01   .52047E+02  -.37798E+02
   .11056E+01   .56007E+02  -.54152E+02
   .11056E+01   .59873E+02  -.37797E+02
   .11056E+01   .57448E+02  -.37796E+02
   .11056E+01   .56455E+02  -.37796E+02
   .11057E+01   .56791E+02  -.43333E+02
   .11057E+01   .57299E+02  -.37795E+02
   .11057E+01   .55627E+02  -.37794E+02
   .11057E+01   .53266E+02  -.37794E+02
   .11057E+01   .56311E+02  -.50726E+02
   .11058E+01   .59074E+02  -.37792E+02
   .11058E+01   .57341E+02  -.37792E+02
   .11058E+01   .55154E+02  -.37792E+02
   .11058E+01   .55542E+02  -.43857E+02
   .11058E+01   .55653E+02  -.37790E+02
   .11058E+01   .55019E+02  -.37790E+02
   .11059E+01   .54846E+02  -.37790E+02
   .11059E+01   .54782E+02  -.44114E+02
   .11059E+01   .54679E+02  -.37855E+02
   .11059E+01   .54430E+02  -.38648E+02
   .11059E+01   .54668E+02  -.45885E+02
   .11059E+01   .55706E+02  -.40592E+02
   .11059E+01   .55152E+02  -.40592E+02
   .11060E+01   .56458E+02  -.47522E+02
   .11060E+01   .57569E+02  -.40590E+02
   .11060E+01   .57502E+02  -.44252E+02
   .11060E+01   .57550E+02  -.40589E+02
   .11060E+01   .57856E+02  -.40589E+02
   .11061E+01   .58002E+02  -.44033E+02
   .11061E+01   .58607E+02  -.40587E+02
   .11061E+01   .57581E+02  -.40585E+02
   .11062E+01   .57212E+02  -.40583E+02
   .11062E+01   .57050E+02  -.40582E+02
   .11063E+01   .56924E+02  -.40580E+02
   .11064E+01   .56790E+02  -.40576E+02
   .11065E+01   .56702E+02  -.40573E+02
   .11066E+01   .56614E+02  -.40568E+02
   .11068E+01   .56552E+02  -.40563E+02
   .11070E+01   .56495E+02  -.40556E+02
   .11072E+01   .56453E+02  -.40550E+02
   .11075E+01   .56411E+02  -.40540E+02
   .11077E+01   .56392E+02  -.40533E+02
   .11080E+01   .56373E+02  -.40523E+02
   .11085E+01   .56358E+02  -.40506E+02
   .11090E+01   .56358E+02  -.40490E+02
   .11095E+01   .56368E+02  -.40473E+02
   .11100E+01   .56386E+02  -.40457E+02
   .11108E+01   .56423E+02  -.40430E+02
   .11115E+01   .56462E+02  -.40407E+02
   .11130E+01   .56557E+02  -.40356E+02
   .11150E+01   .56696E+02  -.40290E+02
   .11170E+01   .56837E+02  -.40223E+02
   .11185E+01   .56943E+02  -.40173E+02
   .11200E+01   .57048E+02  -.40123E+02
   .11250E+01   .57381E+02  -.39957E+02
   .11300E+01   .57693E+02  -.39790E+02
   .11350E+01   .57984E+02  -.39623E+02
   .11400E+01   .58259E+02  -.39457E+02
   .11440E+01   .58469E+02  -.39330E+02
   .11480E+01   .58670E+02  -.39204E+02
   .11550E+01   .59006E+02  -.38983E+02
   .11630E+01   .59366E+02  -.38731E+02
   .11700E+01   .59665E+02  -.38510E+02
   .11780E+01   .59989E+02  -.38270E+02
   .11850E+01   .60261E+02  -.38059E+02
   .12000E+01   .60806E+02  -.37609E+02
   .12200E+01   .61472E+02  -.37039E+02
   .12351E+01   .61935E+02  -.36608E+02
   .12400E+01   .62079E+02  -.36473E+02
   .12450E+01   .62222E+02  -.36336E+02
   .12540E+01   .62473E+02  -.36091E+02
   .12670E+01   .62817E+02  -.35746E+02
   .12800E+01   .63143E+02  -.35402E+02
   .12950E+01   .63495E+02  -.35021E+02
   .13100E+01   .63823E+02  -.34640E+02
   .13250E+01   .64122E+02  -.34276E+02
   .13400E+01   .64384E+02  -.33912E+02
   .13460E+01   .64470E+02  -.33772E+02
   .13520E+01   .64538E+02  -.33632E+02
   .13580E+01   .64562E+02  -.33491E+02
   .13642E+01   .63145E+02  -.33347E+02
   .13642E+01   .64421E+02  -.37607E+02
   .13642E+01   .65697E+02  -.33346E+02
   .13661E+01   .64160E+02  -.33303E+02
   .13679E+01   .33331E+02  -.33261E+02
   .13680E+01   .64537E+02  -.13698E+03
   .13680E+01   .95744E+02  -.33259E+02
   .13688E+01   .65550E+02  -.33242E+02
   .13696E+01   .60915E+02  -.33224E+02
   .13696E+01   .64951E+02  -.46691E+02
   .13696E+01   .68987E+02  -.33222E+02
   .13699E+01   .65073E+02  -.33216E+02
   .13702E+01   .62941E+02  -.33209E+02
   .13702E+01   .64818E+02  -.39576E+02
   .13703E+01   .66693E+02  -.33208E+02
   .13704E+01   .64907E+02  -.33205E+02
   .13705E+01   .63411E+02  -.33203E+02
   .13705E+01   .64820E+02  -.38094E+02
   .13706E+01   .66228E+02  -.33201E+02
   .13706E+01   .65175E+02  -.33200E+02
   .13707E+01   .64847E+02  -.33199E+02
   .13707E+01   .64640E+02  -.33199E+02
   .13707E+01   .64453E+02  -.33198E+02
   .13707E+01   .64232E+02  -.33198E+02
   .13707E+01   .64067E+02  -.33271E+02
   .13707E+01   .63893E+02  -.33354E+02
   .13707E+01   .63639E+02  -.33432E+02
   .13708E+01   .63841E+02  -.33486E+02
   .13708E+01   .64135E+02  -.33541E+02
   .13708E+01   .64460E+02  -.36289E+02
   .13708E+01   .64773E+02  -.33645E+02
   .13708E+01   .65304E+02  -.33644E+02
   .13708E+01   .64763E+02  -.33643E+02
   .13709E+01   .64227E+02  -.33642E+02
   .13709E+01   .64858E+02  -.35975E+02
   .13709E+01   .65487E+02  -.33641E+02
   .13710E+01   .65043E+02  -.33640E+02
   .13710E+01   .64593E+02  -.33639E+02
   .13711E+01   .64874E+02  -.35006E+02
   .13711E+01   .65091E+02  -.33638E+02
   .13711E+01   .64866E+02  -.33638E+02
   .13711E+01   .65047E+02  -.34932E+02
   .13712E+01   .65265E+02  -.33636E+02
   .13712E+01   .65097E+02  -.33636E+02
   .13712E+01   .64758E+02  -.33635E+02
   .13712E+01   .65101E+02  -.35228E+02
   .13712E+01   .65440E+02  -.33634E+02
   .13713E+01   .65260E+02  -.33633E+02
   .13713E+01   .65004E+02  -.33633E+02
   .13713E+01   .65173E+02  -.34663E+02
   .13713E+01   .65265E+02  -.33632E+02
   .13713E+01   .65145E+02  -.33632E+02
   .13714E+01   .65235E+02  -.34580E+02
   .13714E+01   .65290E+02  -.33630E+02
   .13714E+01   .65335E+02  -.34544E+02
   .13714E+01   .65409E+02  -.33629E+02
   .13714E+01   .65509E+02  -.33629E+02
   .13715E+01   .65507E+02  -.34164E+02
   .13715E+01   .65573E+02  -.33628E+02
   .13721E+01   .65128E+02  -.33613E+02
   .13727E+01   .65093E+02  -.33599E+02
   .13734E+01   .65086E+02  -.33582E+02
   .13740E+01   .65089E+02  -.33568E+02
   .13750E+01   .65104E+02  -.33544E+02
   .13760E+01   .65124E+02  -.33521E+02
   .13790E+01   .65196E+02  -.33449E+02
   .13810E+01   .65246E+02  -.33402E+02
   .13860E+01   .65369E+02  -.33283E+02
   .13900E+01   .65464E+02  -.33188E+02
   .14000E+01   .65688E+02  -.32951E+02
   .14100E+01   .65897E+02  -.32713E+02
   .14200E+01   .66092E+02  -.32489E+02
   .14300E+01   .66276E+02  -.32264E+02
   .14525E+01   .66659E+02  -.31761E+02
   .14660E+01   .66863E+02  -.31471E+02
   .14800E+01   .67059E+02  -.31172E+02
   .14900E+01   .67186E+02  -.30965E+02
   .15000E+01   .67301E+02  -.30758E+02
   .15100E+01   .67392E+02  -.30553E+02
   .15150E+01   .67422E+02  -.30451E+02
   .15200E+01   .67434E+02  -.30348E+02
   .15240E+01   .67421E+02  -.30266E+02
   .15270E+01   .67381E+02  -.30204E+02
   .15285E+01   .67342E+02  -.30174E+02
   .15300E+01   .67276E+02  -.30143E+02
   .15320E+01   .67071E+02  -.30102E+02
   .15334E+01   .66096E+02  -.30073E+02
   .15335E+01   .66302E+02  -.30921E+02
   .15335E+01   .66503E+02  -.30071E+02
   .15337E+01   .65445E+02  -.30066E+02
   .15340E+01   .53360E+02  -.30062E+02
   .15340E+01   .67299E+02  -.76375E+02
   .15340E+01   .81237E+02  -.30060E+02
   .15342E+01   .69046E+02  -.30057E+02
   .15344E+01   .65787E+02  -.30053E+02
   .15344E+01   .68274E+02  -.38643E+02
   .15344E+01   .70774E+02  -.30052E+02
   .15347E+01   .67979E+02  -.30047E+02
   .15350E+01   .67475E+02  -.30041E+02
   .15353E+01   .67060E+02  -.30035E+02
   .15356E+01   .63185E+02  -.30029E+02
   .15356E+01   .66999E+02  -.42922E+02
   .15357E+01   .70786E+02  -.30027E+02
   .15357E+01   .68947E+02  -.30027E+02
   .15357E+01   .67614E+02  -.30026E+02
   .15358E+01   .68165E+02  -.32963E+02
   .15358E+01   .68828E+02  -.30025E+02
   .15359E+01   .67693E+02  -.30023E+02
   .15359E+01   .67462E+02  -.30022E+02
   .15360E+01   .67255E+02  -.30021E+02
   .15360E+01   .67032E+02  -.30020E+02
   .15361E+01   .66928E+02  -.30020E+02
   .15361E+01   .66739E+02  -.30019E+02
   .15361E+01   .66575E+02  -.30018E+02
   .15361E+01   .66188E+02  -.30018E+02
   .15362E+01   .65779E+02  -.30017E+02
   .15362E+01   .64571E+02  -.30305E+02
   .15362E+01   .65252E+02  -.30354E+02
   .15362E+01   .65981E+02  -.30498E+02
   .15362E+01   .66707E+02  -.37405E+02
   .15363E+01   .68895E+02  -.30595E+02
   .15363E+01   .67867E+02  -.30594E+02
   .15364E+01   .67429E+02  -.30593E+02
   .15364E+01   .67144E+02  -.30592E+02
   .15365E+01   .66497E+02  -.30590E+02
   .15365E+01   .67200E+02  -.30590E+02
   .15365E+01   .67537E+02  -.30590E+02
   .15365E+01   .68195E+02  -.31284E+02
   .15366E+01   .67941E+02  -.30589E+02
   .15366E+01   .67543E+02  -.30588E+02
   .15366E+01   .67063E+02  -.30587E+02
   .15366E+01   .67551E+02  -.32659E+02
   .15367E+01   .68042E+02  -.30586E+02
   .15367E+01   .67617E+02  -.30586E+02
   .15367E+01   .67243E+02  -.30585E+02
   .15368E+01   .67686E+02  -.32615E+02
   .15368E+01   .68144E+02  -.30584E+02
   .15368E+01   .68054E+02  -.30583E+02
   .15368E+01   .67843E+02  -.30583E+02
   .15368E+01   .67915E+02  -.31764E+02
   .15369E+01   .67981E+02  -.30582E+02
   .15369E+01   .68037E+02  -.31546E+02
   .15369E+01   .68130E+02  -.30581E+02
   .15369E+01   .68211E+02  -.30581E+02
   .15370E+01   .68144E+02  -.30855E+02
   .15370E+01   .68084E+02  -.30580E+02
   .15377E+01   .67708E+02  -.30565E+02
   .15385E+01   .67687E+02  -.30549E+02
   .15393E+01   .67697E+02  -.30532E+02
   .15400E+01   .67713E+02  -.30518E+02
   .15415E+01   .67753E+02  -.30487E+02
   .15430E+01   .67795E+02  -.30457E+02
   .15450E+01   .67849E+02  -.30416E+02
   .15470E+01   .67900E+02  -.30375E+02
   .15500E+01   .67973E+02  -.30313E+02
   .15550E+01   .68085E+02  -.30211E+02
   .15600E+01   .68187E+02  -.30109E+02
   .15700E+01   .68374E+02  -.29904E+02
   .15770E+01   .68495E+02  -.29767E+02
   .15850E+01   .68624E+02  -.29610E+02
   .16000E+01   .68851E+02  -.29315E+02
   .16150E+01   .69061E+02  -.29032E+02
   .16300E+01   .69257E+02  -.28748E+02
   .16500E+01   .69503E+02  -.28387E+02
   .16700E+01   .69735E+02  -.28025E+02
   .17000E+01   .70055E+02  -.27496E+02
   .17400E+01   .70434E+02  -.26819E+02
   .17700E+01   .70692E+02  -.26333E+02
   .18000E+01   .70933E+02  -.25863E+02
   .18200E+01   .71084E+02  -.25556E+02
   .18500E+01   .71291E+02  -.25096E+02
   .18700E+01   .71419E+02  -.24806E+02
   .19000E+01   .71600E+02  -.24372E+02
   .19500E+01   .71870E+02  -.23674E+02
   .19700E+01   .71967E+02  -.23406E+02
   .20000E+01   .72102E+02  -.23005E+02
   .20300E+01   .72222E+02  -.22611E+02
   .20700E+01   .72358E+02  -.22106E+02
   .21100E+01   .72472E+02  -.21622E+02
   .21500E+01   .72570E+02  -.21157E+02
   .21800E+01   .72632E+02  -.20815E+02
   .22200E+01   .72697E+02  -.20376E+02
   .22600E+01   .72745E+02  -.19953E+02
   .23000E+01   .72781E+02  -.19546E+02
   .23500E+01   .72804E+02  -.19053E+02
   .24000E+01   .72807E+02  -.18582E+02
   .24500E+01   .72789E+02  -.18126E+02
   .25000E+01   .72749E+02  -.17690E+02
   .25300E+01   .72716E+02  -.17434E+02
   .25600E+01   .72673E+02  -.17185E+02
   .26210E+01   .72565E+02  -.16698E+02
   .26220E+01   .72563E+02  -.16690E+02
   .26230E+01   .72561E+02  -.16682E+02
   .26380E+01   .72530E+02  -.16566E+02
   .26528E+01   .72498E+02  -.16453E+02
   .26900E+01   .72408E+02  -.16172E+02
   .27300E+01   .72297E+02  -.15879E+02
   .27600E+01   .72204E+02  -.15665E+02
   .28000E+01   .72069E+02  -.15389E+02
   .28500E+01   .71879E+02  -.15051E+02
   .29000E+01   .71664E+02  -.14727E+02
   .29500E+01   .71422E+02  -.14415E+02
   .29800E+01   .71265E+02  -.14235E+02
   .30000E+01   .71154E+02  -.14114E+02
   .30500E+01   .70855E+02  -.13819E+02
   .31000E+01   .70519E+02  -.13534E+02
   .31500E+01   .70142E+02  -.13260E+02
   .32000E+01   .69721E+02  -.12995E+02
   .32300E+01   .69444E+02  -.12840E+02
   .32500E+01   .69247E+02  -.12736E+02
   .32700E+01   .69040E+02  -.12636E+02
   .33000E+01   .68708E+02  -.12486E+02
   .33200E+01   .68472E+02  -.12390E+02
   .33500E+01   .68093E+02  -.12245E+02
   .33800E+01   .67679E+02  -.12105E+02
   .34000E+01   .67382E+02  -.12011E+02
   .34200E+01   .67065E+02  -.11920E+02
   .34500E+01   .66547E+02  -.11783E+02
   .34700E+01   .66166E+02  -.11694E+02
   .35000E+01   .65544E+02  -.11562E+02
   .35200E+01   .65081E+02  -.11476E+02
   .35350E+01   .64705E+02  -.11412E+02
   .35500E+01   .64301E+02  -.11348E+02
   .35650E+01   .63864E+02  -.11286E+02
   .35800E+01   .63389E+02  -.11224E+02
   .35900E+01   .63048E+02  -.11183E+02
   .36000E+01   .62685E+02  -.11141E+02
   .36100E+01   .62296E+02  -.11101E+02
   .36200E+01   .61878E+02  -.11061E+02
   .36300E+01   .61426E+02  -.11021E+02
   .36400E+01   .60935E+02  -.10981E+02
   .36500E+01   .60396E+02  -.10941E+02
   .36600E+01   .59801E+02  -.10901E+02
   .36700E+01   .59137E+02  -.10861E+02
   .36800E+01   .58384E+02  -.10821E+02
   .36900E+01   .57519E+02  -.10783E+02
   .36950E+01   .57033E+02  -.10764E+02
   .37000E+01   .56503E+02  -.10745E+02
   .37050E+01   .55919E+02  -.10726E+02
   .37100E+01   .55272E+02  -.10707E+02
   .37150E+01   .54548E+02  -.10689E+02
   .37200E+01   .53724E+02  -.10670E+02
   .37250E+01   .52774E+02  -.10651E+02
   .37300E+01   .51655E+02  -.10632E+02
   .37350E+01   .50304E+02  -.10613E+02
   .37380E+01   .49341E+02  -.10601E+02
   .37400E+01   .48616E+02  -.10594E+02
   .37440E+01   .46904E+02  -.10578E+02
   .37470E+01   .45307E+02  -.10567E+02
   .37510E+01   .42532E+02  -.10552E+02
   .37540E+01   .39679E+02  -.10541E+02
   .37560E+01   .37181E+02  -.10533E+02
   .37580E+01   .33935E+02  -.10525E+02
   .37595E+01   .30756E+02  -.10520E+02
   .37610E+01   .26588E+02  -.10514E+02
   .37630E+01   .18388E+02  -.10507E+02
   .37650E+01   .37899E+01  -.10499E+02
   .37670E+01  -.30767E+02  -.10491E+02
   .37687E+01  -.27412E+03  -.10485E+02
   .37688E+01  -.13979E+03  -.49245E+03
   .37689E+01  -.72287E+01  -.10484E+02
   .37694E+01  -.31088E+03  -.10482E+02
   .37696E+01  -.54315E+03  -.10481E+02
   .37699E+01  -.27519E+04  -.10481E+02
   .37699E+01  -.14815E+04  -.46374E+04
   .37700E+01   .60367E+02  -.92642E+04
   .37701E+01   .28727E+04  -.10480E+02
   .37708E+01   .32702E+03  -.10477E+02
   .37715E+01   .19916E+03  -.10474E+02
   .37723E+01   .14912E+03  -.10472E+02
   .37730E+01   .12578E+03  -.10469E+02
   .37731E+01   .12382E+03  -.10890E+02
   .37731E+01   .12194E+03  -.10469E+02
   .37733E+01   .11839E+03  -.10468E+02
   .37734E+01   .11380E+03  -.10467E+02
   .37735E+01   .11447E+03  -.17812E+02
   .37736E+01   .11520E+03  -.10467E+02
   .37742E+01   .10363E+03  -.10465E+02
   .37748E+01   .95330E+02  -.10462E+02
   .37749E+01   .95189E+02  -.12956E+02
   .37750E+01   .95021E+02  -.10462E+02
   .37751E+01   .93018E+02  -.10461E+02
   .37752E+01   .90844E+02  -.10461E+02
   .37753E+01   .91144E+02  -.14196E+02
   .37754E+01   .91371E+02  -.10460E+02
   .37754E+01   .90160E+02  -.10460E+02
   .37755E+01   .88856E+02  -.10460E+02
   .37756E+01   .88769E+02  -.13074E+02
   .37757E+01   .88614E+02  -.10459E+02
   .37757E+01   .87954E+02  -.10459E+02
   .37757E+01   .87463E+02  -.10459E+02
   .37758E+01   .87404E+02  -.13363E+02
   .37759E+01   .87306E+02  -.10458E+02
   .37759E+01   .86847E+02  -.10458E+02
   .37759E+01   .86575E+02  -.10458E+02
   .37760E+01   .86491E+02  -.13278E+02
   .37760E+01   .86592E+02  -.10458E+02
   .37761E+01   .85454E+02  -.10458E+02
   .37762E+01   .84593E+02  -.10457E+02
   .37763E+01   .83638E+02  -.10457E+02
   .37764E+01   .82717E+02  -.10457E+02
   .37764E+01   .82249E+02  -.10456E+02
   .37765E+01   .81760E+02  -.10456E+02
   .37766E+01   .81157E+02  -.10456E+02
   .37766E+01   .80544E+02  -.10536E+02
   .37766E+01   .79970E+02  -.10953E+02
   .37767E+01   .79602E+02  -.11386E+02
   .37768E+01   .79449E+02  -.11834E+02
   .37768E+01   .79351E+02  -.11962E+02
   .37768E+01   .79279E+02  -.11988E+02
   .37769E+01   .79185E+02  -.12023E+02
   .37769E+01   .78841E+02  -.12092E+02
   .37770E+01   .78517E+02  -.12153E+02
   .37771E+01   .78138E+02  -.12223E+02
   .37773E+01   .77187E+02  -.12401E+02
   .37775E+01   .76258E+02  -.12580E+02
   .37779E+01   .74510E+02  -.12947E+02
   .37783E+01   .72914E+02  -.13319E+02
   .37790E+01   .70460E+02  -.13989E+02
   .37798E+01   .68093E+02  -.14771E+02
   .37805E+01   .66352E+02  -.15466E+02
   .37813E+01   .64675E+02  -.16265E+02
   .37820E+01   .63445E+02  -.16961E+02
   .37828E+01   .62271E+02  -.17742E+02
   .37835E+01   .61424E+02  -.18406E+02
   .37843E+01   .60633E+02  -.19134E+02
   .37846E+01   .60386E+02  -.19396E+02
   .37850E+01   .60077E+02  -.19737E+02
   .37854E+01   .59816E+02  -.20065E+02
   .37858E+01   .59575E+02  -.20381E+02
   .37861E+01   .59422E+02  -.20608E+02
   .37865E+01   .59235E+02  -.20901E+02
   .37869E+01   .59080E+02  -.21178E+02
   .37873E+01   .58941E+02  -.21442E+02
   .37876E+01   .58856E+02  -.21631E+02
   .37880E+01   .58754E+02  -.21870E+02
   .37884E+01   .58675E+02  -.22095E+02
   .37888E+01   .58608E+02  -.22306E+02
   .37891E+01   .58565E+02  -.22455E+02
   .37895E+01   .58517E+02  -.22643E+02
   .37903E+01   .58457E+02  -.22979E+02
   .37910E+01   .58433E+02  -.23236E+02
   .37918E+01   .58420E+02  -.23488E+02
   .37925E+01   .58433E+02  -.23677E+02
   .37933E+01   .58446E+02  -.23861E+02
   .37940E+01   .58478E+02  -.23998E+02
   .37947E+01   .58498E+02  -.24115E+02
   .37955E+01   .58539E+02  -.24229E+02
   .37962E+01   .58562E+02  -.24313E+02
   .37970E+01   .58604E+02  -.24395E+02
   .37985E+01   .58659E+02  -.24517E+02
   .38000E+01   .58711E+02  -.24609E+02
   .38015E+01   .58756E+02  -.24680E+02
   .38030E+01   .58801E+02  -.24741E+02
   .38040E+01   .58829E+02  -.24775E+02
   .38050E+01   .58858E+02  -.24809E+02
   .38080E+01   .58944E+02  -.24901E+02
   .38100E+01   .59009E+02  -.24948E+02
   .38130E+01   .59121E+02  -.25012E+02
   .38150E+01   .59206E+02  -.25047E+02
   .38180E+01   .59336E+02  -.25068E+02
   .38200E+01   .59430E+02  -.25072E+02
   .38240E+01   .59605E+02  -.25050E+02
   .38280E+01   .59762E+02  -.24996E+02
   .38320E+01   .59893E+02  -.24917E+02
   .38350E+01   .59970E+02  -.24853E+02
   .38390E+01   .60050E+02  -.24769E+02
   .38430E+01   .60107E+02  -.24685E+02
   .38470E+01   .60142E+02  -.24615E+02
   .38500E+01   .60160E+02  -.24561E+02
   .38560E+01   .60182E+02  -.24481E+02
   .38620E+01   .60185E+02  -.24407E+02
   .38680E+01   .60171E+02  -.24335E+02
   .38731E+01   .60139E+02  -.24274E+02
   .38800E+01   .60064E+02  -.24185E+02
   .38870E+01   .59941E+02  -.24095E+02
   .38930E+01   .59789E+02  -.24018E+02
   .39000E+01   .59545E+02  -.23928E+02
   .39050E+01   .59323E+02  -.23873E+02
   .39100E+01   .59059E+02  -.23818E+02
   .39150E+01   .58739E+02  -.23763E+02
   .39200E+01   .58351E+02  -.23708E+02
   .39240E+01   .57977E+02  -.23667E+02
   .39280E+01   .57533E+02  -.23626E+02
   .39320E+01   .56999E+02  -.23585E+02
   .39350E+01   .56524E+02  -.23554E+02
   .39390E+01   .55762E+02  -.23513E+02
   .39420E+01   .55061E+02  -.23482E+02
   .39460E+01   .53882E+02  -.23441E+02
   .39500E+01   .52281E+02  -.23400E+02
   .39520E+01   .51240E+02  -.23380E+02
   .39550E+01   .49209E+02  -.23350E+02
   .39580E+01   .46256E+02  -.23320E+02
   .39600E+01   .43387E+02  -.23300E+02
   .39630E+01   .36262E+02  -.23270E+02
   .39650E+01   .27138E+02  -.23250E+02
   .39665E+01   .14008E+02  -.23235E+02
   .39680E+01  -.16660E+02  -.23220E+02
   .39691E+01  -.91400E+02  -.23209E+02
   .39701E+01  -.19985E+04  -.23199E+02
   .39702E+01  -.97019E+03  -.32699E+04
   .39702E+01   .58074E+02  -.65167E+04
   .39703E+01   .21146E+04  -.23197E+02
   .39712E+01   .22569E+03  -.23188E+02
   .39721E+01   .14596E+03  -.23179E+02
   .39730E+01   .11679E+03  -.23170E+02
   .39739E+01   .10163E+03  -.23161E+02
   .39740E+01   .10068E+03  -.23458E+02
   .39741E+01   .99752E+02  -.23160E+02
   .39743E+01   .97106E+02  -.23158E+02
   .39745E+01   .92969E+02  -.23156E+02
   .39745E+01   .95189E+02  -.32598E+02
   .39746E+01   .97424E+02  -.23154E+02
   .39747E+01   .94543E+02  -.23153E+02
   .39749E+01   .92969E+02  -.23152E+02
   .39749E+01   .92365E+02  -.23761E+02
   .39750E+01   .91830E+02  -.23150E+02
   .39756E+01   .87561E+02  -.23145E+02
   .39761E+01   .83450E+02  -.23139E+02
   .39762E+01   .83896E+02  -.26004E+02
   .39763E+01   .84344E+02  -.23138E+02
   .39764E+01   .82596E+02  -.23136E+02
   .39766E+01   .80948E+02  -.23134E+02
   .39767E+01   .81214E+02  -.25564E+02
   .39768E+01   .81501E+02  -.23132E+02
   .39769E+01   .80809E+02  -.23132E+02
   .39769E+01   .80076E+02  -.23131E+02
   .39770E+01   .80027E+02  -.24716E+02
   .39771E+01   .79897E+02  -.23129E+02
   .39771E+01   .79491E+02  -.23129E+02
   .39771E+01   .79196E+02  -.23129E+02
   .39772E+01   .79187E+02  -.25142E+02
   .39773E+01   .79204E+02  -.23127E+02
   .39773E+01   .79118E+02  -.23127E+02
   .39773E+01   .78992E+02  -.23127E+02
   .39774E+01   .78588E+02  -.24274E+02
   .39775E+01   .78239E+02  -.23217E+02
   .39775E+01   .77646E+02  -.23542E+02
   .39776E+01   .77407E+02  -.23858E+02
   .39776E+01   .77290E+02  -.24029E+02
   .39777E+01   .77212E+02  -.24053E+02
   .39778E+01   .77090E+02  -.24078E+02
   .39778E+01   .76942E+02  -.24102E+02
   .39779E+01   .76729E+02  -.24136E+02
   .39780E+01   .76484E+02  -.24175E+02
   .39781E+01   .76027E+02  -.24249E+02
   .39784E+01   .75146E+02  -.24402E+02
   .39787E+01   .74322E+02  -.24559E+02
   .39794E+01   .72597E+02  -.24947E+02
   .39800E+01   .71317E+02  -.25298E+02
   .39808E+01   .69856E+02  -.25791E+02
   .39815E+01   .68772E+02  -.26230E+02
   .39823E+01   .67717E+02  -.26747E+02
   .39830E+01   .66941E+02  -.27199E+02
   .39838E+01   .66203E+02  -.27713E+02
   .39845E+01   .65672E+02  -.28152E+02
   .39853E+01   .65176E+02  -.28634E+02
   .39860E+01   .64833E+02  -.29036E+02
   .39868E+01   .64524E+02  -.29465E+02
   .39875E+01   .64321E+02  -.29812E+02
   .39883E+01   .64149E+02  -.30174E+02
   .39890E+01   .64046E+02  -.30459E+02
   .39898E+01   .63972E+02  -.30749E+02
   .39905E+01   .63931E+02  -.30974E+02
   .39913E+01   .63911E+02  -.31198E+02
   .39920E+01   .63914E+02  -.31368E+02
   .39928E+01   .63926E+02  -.31535E+02
   .39935E+01   .63952E+02  -.31661E+02
   .39943E+01   .63982E+02  -.31784E+02
   .39950E+01   .64021E+02  -.31876E+02
   .39965E+01   .64094E+02  -.32031E+02
   .39980E+01   .64172E+02  -.32145E+02
   .39990E+01   .64226E+02  -.32202E+02
   .39995E+01   .64253E+02  -.32227E+02
   .40000E+01   .64281E+02  -.32251E+02
   .40030E+01   .64415E+02  -.32345E+02
   .40050E+01   .64508E+02  -.32408E+02
   .40080E+01   .64655E+02  -.32465E+02
   .40100E+01   .64759E+02  -.32502E+02
   .40130E+01   .64922E+02  -.32535E+02
   .40150E+01   .65039E+02  -.32556E+02
   .40180E+01   .65217E+02  -.32560E+02
   .40200E+01   .65339E+02  -.32563E+02
   .40230E+01   .65520E+02  -.32539E+02
   .40250E+01   .65640E+02  -.32524E+02
   .40280E+01   .65813E+02  -.32480E+02
   .40300E+01   .65924E+02  -.32451E+02
   .40330E+01   .66086E+02  -.32395E+02
   .40350E+01   .66183E+02  -.32357E+02
   .40380E+01   .66324E+02  -.32299E+02
   .40400E+01   .66411E+02  -.32260E+02
   .40450E+01   .66624E+02  -.32180E+02
   .40500E+01   .66833E+02  -.32100E+02
   .40550E+01   .67033E+02  -.32020E+02
   .40600E+01   .67222E+02  -.31940E+02
   .40670E+01   .67479E+02  -.31844E+02
   .40730E+01   .67695E+02  -.31762E+02
   .40800E+01   .67942E+02  -.31667E+02
   .40860E+01   .68146E+02  -.31585E+02
   .40980E+01   .68534E+02  -.31425E+02
   .41100E+01   .68895E+02  -.31265E+02
   .41200E+01   .69173E+02  -.31131E+02
   .41300E+01   .69437E+02  -.30998E+02
   .41400E+01   .69696E+02  -.30879E+02
   .41500E+01   .69945E+02  -.30760E+02
   .41600E+01   .70184E+02  -.30642E+02
   .41700E+01   .70413E+02  -.30523E+02
   .41800E+01   .70632E+02  -.30407E+02
   .41900E+01   .70843E+02  -.30291E+02
   .42000E+01   .71045E+02  -.30175E+02
   .42100E+01   .71238E+02  -.30059E+02
   .42200E+01   .71423E+02  -.29948E+02
   .42300E+01   .71598E+02  -.29836E+02
   .42450E+01   .71848E+02  -.29670E+02
   .42598E+01   .72081E+02  -.29505E+02
   .42750E+01   .72304E+02  -.29344E+02
   .42900E+01   .72509E+02  -.29184E+02
   .43100E+01   .72759E+02  -.28972E+02
   .43300E+01   .72981E+02  -.28759E+02
   .43500E+01   .73174E+02  -.28555E+02
   .43700E+01   .73337E+02  -.28350E+02
   .43850E+01   .73437E+02  -.28197E+02
   .44000E+01   .73516E+02  -.28044E+02
   .44150E+01   .73572E+02  -.27896E+02
   .44230E+01   .73591E+02  -.27816E+02
   .44300E+01   .73601E+02  -.27747E+02
   .44400E+01   .73600E+02  -.27648E+02
   .44500E+01   .73582E+02  -.27549E+02
   .44600E+01   .73542E+02  -.27451E+02
   .44700E+01   .73475E+02  -.27352E+02
   .44800E+01   .73374E+02  -.27257E+02
   .44850E+01   .73307E+02  -.27209E+02
   .44900E+01   .73226E+02  -.27161E+02
   .44950E+01   .73129E+02  -.27114E+02
   .45000E+01   .73012E+02  -.27066E+02
   .45050E+01   .72869E+02  -.27018E+02
   .45100E+01   .72692E+02  -.26971E+02
   .45150E+01   .72471E+02  -.26923E+02
   .45180E+01   .72308E+02  -.26895E+02
   .45200E+01   .72184E+02  -.26876E+02
   .45230E+01   .71968E+02  -.26847E+02
   .45250E+01   .71798E+02  -.26828E+02
   .45270E+01   .71602E+02  -.26809E+02
   .45300E+01   .71240E+02  -.26781E+02
   .45315E+01   .71018E+02  -.26766E+02
   .45330E+01   .70757E+02  -.26752E+02
   .45345E+01   .70446E+02  -.26738E+02
   .45360E+01   .70064E+02  -.26723E+02
   .45375E+01   .69579E+02  -.26709E+02
   .45390E+01   .68929E+02  -.26695E+02
   .45400E+01   .68345E+02  -.26685E+02
   .45410E+01   .67539E+02  -.26676E+02
   .45416E+01   .66834E+02  -.26670E+02
   .45422E+01   .64766E+02  -.26664E+02
   .45423E+01   .66067E+02  -.31330E+02
   .45424E+01   .67356E+02  -.26663E+02
   .45429E+01   .64818E+02  -.26658E+02
   .45434E+01   .56556E+02  -.26653E+02
   .45435E+01   .64930E+02  -.54152E+02
   .45436E+01   .73295E+02  -.26652E+02
   .45442E+01   .63935E+02  -.26646E+02
   .45448E+01   .60779E+02  -.26640E+02
   .45454E+01   .54155E+02  -.26635E+02
   .45460E+01   .22317E+02  -.26629E+02
   .45461E+01   .41538E+02  -.10170E+03
   .45461E+01   .59048E+02  -.26628E+02
   .45463E+01   .22041E+02  -.26626E+02
   .45465E+01  -.79296E+02  -.26625E+02
   .45466E+01   .72730E+02  -.51774E+03
   .45467E+01   .22501E+03  -.26623E+02
   .45469E+01   .11405E+03  -.26621E+02
   .45471E+01   .95540E+02  -.26618E+02
   .45474E+01   .85107E+02  -.26616E+02
   .45476E+01   .79044E+02  -.26614E+02
   .45477E+01   .80363E+02  -.36109E+02
   .45478E+01   .81720E+02  -.26612E+02
   .45478E+01   .79621E+02  -.26612E+02
   .45479E+01   .78020E+02  -.26611E+02
   .45479E+01   .76570E+02  -.26611E+02
   .45480E+01   .75072E+02  -.26610E+02
   .45481E+01   .71074E+02  -.26609E+02
   .45482E+01   .61859E+02  -.26608E+02
   .45483E+01   .76408E+02  -.76019E+02
   .45484E+01   .90066E+02  -.26606E+02
   .45485E+01   .84820E+02  -.26606E+02
   .45485E+01   .81549E+02  -.26606E+02
   .45486E+01   .78532E+02  -.30065E+02
   .45487E+01   .76378E+02  -.26604E+02
   .45487E+01   .73901E+02  -.26604E+02
   .45488E+01   .70825E+02  -.26603E+02
   .45489E+01   .75828E+02  -.48153E+02
   .45490E+01   .80606E+02  -.26601E+02
   .45490E+01   .77376E+02  -.26601E+02
   .45490E+01   .75205E+02  -.26601E+02
   .45491E+01   .75579E+02  -.37718E+02
   .45492E+01   .75299E+02  -.26599E+02
   .45493E+01   .76085E+02  -.40063E+02
   .45494E+01   .77287E+02  -.26597E+02
   .45495E+01   .75970E+02  -.34998E+02
   .45496E+01   .75894E+02  -.27664E+02
   .45497E+01   .73904E+02  -.29005E+02
   .45497E+01   .73475E+02  -.30444E+02
   .45497E+01   .73577E+02  -.31953E+02
   .45498E+01   .73961E+02  -.31939E+02
   .45498E+01   .74475E+02  -.31921E+02
   .45499E+01   .74584E+02  -.31903E+02
   .45500E+01   .74645E+02  -.31884E+02
   .45500E+01   .74677E+02  -.31866E+02
   .45500E+01   .74690E+02  -.31855E+02
   .45501E+01   .74701E+02  -.31840E+02
   .45501E+01   .74707E+02  -.31811E+02
   .45502E+01   .74699E+02  -.31782E+02
   .45503E+01   .74686E+02  -.31756E+02
   .45504E+01   .74656E+02  -.31726E+02
   .45505E+01   .74622E+02  -.31696E+02
   .45506E+01   .74590E+02  -.31666E+02
   .45507E+01   .74558E+02  -.31636E+02
   .45508E+01   .74534E+02  -.31617E+02
   .45508E+01   .74509E+02  -.31595E+02
   .45510E+01   .74458E+02  -.31554E+02
   .45512E+01   .74392E+02  -.31510E+02
   .45515E+01   .74302E+02  -.31445E+02
   .45517E+01   .74246E+02  -.31409E+02
   .45520E+01   .74170E+02  -.31355E+02
   .45522E+01   .74123E+02  -.31326E+02
   .45525E+01   .74059E+02  -.31283E+02
   .45528E+01   .74002E+02  -.31247E+02
   .45530E+01   .73966E+02  -.31223E+02
   .45535E+01   .73891E+02  -.31178E+02
   .45540E+01   .73829E+02  -.31134E+02
   .45545E+01   .73777E+02  -.31103E+02
   .45550E+01   .73735E+02  -.31073E+02
   .45555E+01   .73701E+02  -.31053E+02
   .45560E+01   .73674E+02  -.31033E+02
   .45570E+01   .73637E+02  -.31006E+02
   .45580E+01   .73622E+02  -.30991E+02
   .45590E+01   .73622E+02  -.30976E+02
   .45600E+01   .73633E+02  -.30969E+02
   .45610E+01   .73655E+02  -.30962E+02
   .45630E+01   .73716E+02  -.30951E+02
   .45650E+01   .73798E+02  -.30940E+02
   .45670E+01   .73886E+02  -.30918E+02
   .45690E+01   .73974E+02  -.30896E+02
   .45705E+01   .74041E+02  -.30879E+02
   .45720E+01   .74110E+02  -.30863E+02
   .45740E+01   .74199E+02  -.30832E+02
   .45760E+01   .74283E+02  -.30801E+02
   .45780E+01   .74362E+02  -.30770E+02
   .45800E+01   .74435E+02  -.30739E+02
   .45840E+01   .74576E+02  -.30691E+02
   .45880E+01   .74714E+02  -.30643E+02
   .45920E+01   .74843E+02  -.30595E+02
   .45950E+01   .74932E+02  -.30559E+02
   .46030E+01   .75163E+02  -.30493E+02
   .46100E+01   .75366E+02  -.30435E+02
   .46180E+01   .75586E+02  -.30360E+02
   .46250E+01   .75767E+02  -.30294E+02
   .46320E+01   .75939E+02  -.30228E+02
   .46400E+01   .76127E+02  -.30153E+02
   .46480E+01   .76306E+02  -.30079E+02
   .46550E+01   .76456E+02  -.30014E+02
   .46700E+01   .76762E+02  -.29875E+02
   .46850E+01   .77047E+02  -.29736E+02
   .47000E+01   .77314E+02  -.29597E+02
   .47200E+01   .77646E+02  -.29412E+02
   .47400E+01   .77956E+02  -.29227E+02
   .47550E+01   .78176E+02  -.29093E+02
   .47700E+01   .78386E+02  -.28958E+02
   .47850E+01   .78588E+02  -.28824E+02
   .48000E+01   .78783E+02  -.28690E+02
   .48150E+01   .78970E+02  -.28559E+02
   .48300E+01   .79149E+02  -.28429E+02
   .48500E+01   .79378E+02  -.28254E+02
   .48800E+01   .79702E+02  -.27993E+02
   .49000E+01   .79907E+02  -.27819E+02
   .49200E+01   .80102E+02  -.27653E+02
   .49500E+01   .80380E+02  -.27403E+02
   .49700E+01   .80556E+02  -.27237E+02
   .50000E+01   .80809E+02  -.26988E+02
   .50100E+01   .80891E+02  -.26906E+02
   .50200E+01   .80970E+02  -.26824E+02
   .50330E+01   .81070E+02  -.26718E+02
   .50464E+01   .81170E+02  -.26609E+02
   .50800E+01   .81407E+02  -.26343E+02
   .51000E+01   .81540E+02  -.26184E+02
   .51200E+01   .81667E+02  -.26025E+02
   .51400E+01   .81789E+02  -.25873E+02
   .51600E+01   .81905E+02  -.25720E+02
   .51800E+01   .82015E+02  -.25567E+02
   .52000E+01   .82120E+02  -.25415E+02
   .52300E+01   .82266E+02  -.25196E+02
   .52600E+01   .82400E+02  -.24977E+02
   .52800E+01   .82482E+02  -.24831E+02
   .53100E+01   .82594E+02  -.24612E+02
   .53300E+01   .82660E+02  -.24473E+02
   .53600E+01   .82743E+02  -.24264E+02
   .53900E+01   .82806E+02  -.24054E+02
   .54147E+01   .82837E+02  -.23882E+02
   .54220E+01   .82842E+02  -.23833E+02
   .54300E+01   .82845E+02  -.23780E+02
   .54500E+01   .82837E+02  -.23646E+02
   .54650E+01   .82813E+02  -.23545E+02
   .54730E+01   .82791E+02  -.23492E+02
   .54800E+01   .82766E+02  -.23445E+02
   .54880E+01   .82727E+02  -.23393E+02
   .54950E+01   .82683E+02  -.23347E+02
   .55030E+01   .82615E+02  -.23295E+02
   .55070E+01   .82572E+02  -.23269E+02
   .55100E+01   .82535E+02  -.23250E+02
   .55150E+01   .82459E+02  -.23217E+02
   .55200E+01   .82361E+02  -.23185E+02
   .55250E+01   .82228E+02  -.23152E+02
   .55300E+01   .82034E+02  -.23120E+02
   .55315E+01   .81957E+02  -.23110E+02
   .55330E+01   .81866E+02  -.23100E+02
   .55350E+01   .81716E+02  -.23087E+02
   .55370E+01   .81514E+02  -.23074E+02
   .55385E+01   .81307E+02  -.23064E+02
   .55400E+01   .81010E+02  -.23055E+02
   .55420E+01   .80220E+02  -.23042E+02
   .55432E+01   .74157E+02  -.23034E+02
   .55433E+01   .80176E+02  -.42453E+02
   .55434E+01   .86193E+02  -.23032E+02
   .55443E+01   .80211E+02  -.23027E+02
   .55452E+01   .78617E+02  -.23021E+02
   .55457E+01   .77302E+02  -.23018E+02
   .55461E+01   .75370E+02  -.23015E+02
   .55465E+01   .71058E+02  -.23013E+02
   .55470E+01   .24829E+02  -.23009E+02
   .55471E+01   .81419E+02  -.20407E+03
   .55472E+01   .13801E+03  -.23008E+02
   .55476E+01   .94361E+02  -.23006E+02
   .55478E+01   .90426E+02  -.23004E+02
   .55479E+01   .88958E+02  -.23003E+02
   .55481E+01   .87365E+02  -.23002E+02
   .55483E+01   .86054E+02  -.23001E+02
   .55485E+01   .84924E+02  -.23000E+02
   .55486E+01   .84015E+02  -.22999E+02
   .55487E+01   .84087E+02  -.23927E+02
   .55487E+01   .84174E+02  -.25040E+02
   .55489E+01   .84312E+02  -.22998E+02
   .55490E+01   .83511E+02  -.22997E+02
   .55490E+01   .82761E+02  -.22996E+02
   .55491E+01   .81746E+02  -.22996E+02
   .55493E+01   .79699E+02  -.22995E+02
   .55493E+01   .80942E+02  -.22995E+02
   .55494E+01   .82457E+02  -.34143E+02
   .55495E+01   .85309E+02  -.23756E+02
   .55495E+01   .84422E+02  -.24001E+02
   .55496E+01   .83810E+02  -.24248E+02
   .55496E+01   .83500E+02  -.24516E+02
   .55497E+01   .83310E+02  -.25258E+02
   .55497E+01   .83129E+02  -.24510E+02
   .55498E+01   .82818E+02  -.24507E+02
   .55498E+01   .82559E+02  -.24506E+02
   .55498E+01   .82286E+02  -.24505E+02
   .55499E+01   .83481E+02  -.29448E+02
   .55500E+01   .84631E+02  -.24494E+02
   .55501E+01   .83862E+02  -.24491E+02
   .55501E+01   .83263E+02  -.24489E+02
   .55502E+01   .83991E+02  -.28566E+02
   .55504E+01   .84688E+02  -.24477E+02
   .55504E+01   .84342E+02  -.24476E+02
   .55504E+01   .84178E+02  -.24476E+02
   .55505E+01   .84598E+02  -.27671E+02
   .55506E+01   .85301E+02  -.24464E+02
   .55508E+01   .84419E+02  -.24462E+02
   .55510E+01   .84098E+02  -.24461E+02
   .55511E+01   .83950E+02  -.24459E+02
   .55513E+01   .83840E+02  -.24458E+02
   .55517E+01   .83640E+02  -.24455E+02
   .55520E+01   .83537E+02  -.24452E+02
   .55525E+01   .83410E+02  -.24448E+02
   .55530E+01   .83316E+02  -.24444E+02
   .55535E+01   .83243E+02  -.24440E+02
   .55540E+01   .83187E+02  -.24435E+02
   .55550E+01   .83106E+02  -.24427E+02
   .55560E+01   .83051E+02  -.24418E+02
   .55570E+01   .83015E+02  -.24410E+02
   .55580E+01   .82991E+02  -.24401E+02
   .55600E+01   .82970E+02  -.24384E+02
   .55620E+01   .82970E+02  -.24367E+02
   .55635E+01   .82978E+02  -.24355E+02
   .55650E+01   .82991E+02  -.24342E+02
   .55670E+01   .83012E+02  -.24325E+02
   .55690E+01   .83034E+02  -.24308E+02
   .55720E+01   .83069E+02  -.24283E+02
   .55760E+01   .83115E+02  -.24249E+02
   .55800E+01   .83157E+02  -.24215E+02
   .55820E+01   .83176E+02  -.24201E+02
   .55850E+01   .83206E+02  -.24182E+02
   .55900E+01   .83256E+02  -.24149E+02
   .55950E+01   .83303E+02  -.24116E+02
   .56000E+01   .83348E+02  -.24083E+02
   .56100E+01   .83434E+02  -.24024E+02
   .56200E+01   .83517E+02  -.23965E+02
   .56300E+01   .83596E+02  -.23903E+02
   .56400E+01   .83667E+02  -.23841E+02
   .56500E+01   .83735E+02  -.23780E+02
   .56600E+01   .83799E+02  -.23719E+02
   .56700E+01   .83859E+02  -.23659E+02
   .56800E+01   .83916E+02  -.23598E+02
   .57000E+01   .84023E+02  -.23479E+02
   .57297E+01   .84162E+02  -.23303E+02
   .57500E+01   .84245E+02  -.23186E+02
   .57700E+01   .84316E+02  -.23070E+02
   .57800E+01   .84348E+02  -.23012E+02
   .57900E+01   .84377E+02  -.22954E+02
   .58050E+01   .84414E+02  -.22867E+02
   .58200E+01   .84443E+02  -.22780E+02
   .58300E+01   .84456E+02  -.22724E+02
   .58400E+01   .84463E+02  -.22667E+02
   .58500E+01   .84462E+02  -.22611E+02
   .58600E+01   .84450E+02  -.22554E+02
   .58650E+01   .84439E+02  -.22526E+02
   .58700E+01   .84423E+02  -.22498E+02
   .58750E+01   .84401E+02  -.22469E+02
   .58800E+01   .84372E+02  -.22441E+02
   .58830E+01   .84349E+02  -.22424E+02
   .58870E+01   .84311E+02  -.22402E+02
   .58910E+01   .84259E+02  -.22379E+02
   .58940E+01   .84209E+02  -.22362E+02
   .58960E+01   .84166E+02  -.22351E+02
   .58980E+01   .84114E+02  -.22339E+02
   .58995E+01   .84065E+02  -.22331E+02
   .59010E+01   .84005E+02  -.22322E+02
   .59020E+01   .83957E+02  -.22317E+02
   .59030E+01   .83898E+02  -.22311E+02
   .59040E+01   .83826E+02  -.22305E+02
   .59050E+01   .83732E+02  -.22300E+02
   .59060E+01   .83601E+02  -.22294E+02
   .59070E+01   .83398E+02  -.22288E+02
   .59074E+01   .83275E+02  -.22286E+02
   .59079E+01   .83049E+02  -.22283E+02
   .59083E+01   .82737E+02  -.22281E+02
   .59087E+01   .81863E+02  -.22279E+02
   .59088E+01   .81980E+02  -.23045E+02
   .59088E+01   .82080E+02  -.23811E+02
   .59089E+01   .82171E+02  -.22278E+02
   .59091E+01   .80896E+02  -.22277E+02
   .59093E+01   .77704E+02  -.22276E+02
   .59094E+01   .82644E+02  -.39750E+02
   .59095E+01   .87924E+02  -.22274E+02
   .59096E+01   .85346E+02  -.22274E+02
   .59097E+01   .83532E+02  -.22274E+02
   .59098E+01   .84954E+02  -.29135E+02
   .59099E+01   .86686E+02  -.22272E+02
   .59100E+01   .85109E+02  -.22271E+02
   .59102E+01   .84477E+02  -.22271E+02
   .59103E+01   .84156E+02  -.22270E+02
   .59104E+01   .83878E+02  -.22269E+02
   .59105E+01   .83704E+02  -.22269E+02
   .59106E+01   .83533E+02  -.22268E+02
   .59106E+01   .83326E+02  -.22268E+02
   .59107E+01   .83094E+02  -.22268E+02
   .59108E+01   .82847E+02  -.22267E+02
   .59108E+01   .82518E+02  -.22267E+02
   .59109E+01   .82025E+02  -.22267E+02
   .59109E+01   .81264E+02  -.22266E+02
   .59110E+01   .81728E+02  -.24011E+02
   .59110E+01   .82184E+02  -.25756E+02
   .59111E+01   .83114E+02  -.29245E+02
   .59112E+01   .84825E+02  -.22675E+02
   .59113E+01   .83998E+02  -.22972E+02
   .59113E+01   .83634E+02  -.23254E+02
   .59114E+01   .83388E+02  -.23254E+02
   .59115E+01   .82962E+02  -.23253E+02
   .59116E+01   .83333E+02  -.24766E+02
   .59116E+01   .83745E+02  -.26279E+02
   .59117E+01   .84491E+02  -.23252E+02
   .59118E+01   .84137E+02  -.23251E+02
   .59118E+01   .83742E+02  -.23251E+02
   .59119E+01   .84223E+02  -.25688E+02
   .59120E+01   .84628E+02  -.23250E+02
   .59121E+01   .84580E+02  -.23250E+02
   .59122E+01   .84678E+02  -.24868E+02
   .59123E+01   .85017E+02  -.23248E+02
   .59125E+01   .84577E+02  -.23247E+02
   .59127E+01   .84441E+02  -.23246E+02
   .59129E+01   .84372E+02  -.23244E+02
   .59131E+01   .84331E+02  -.23243E+02
   .59136E+01   .84283E+02  -.23240E+02
   .59140E+01   .84268E+02  -.23237E+02
   .59145E+01   .84264E+02  -.23234E+02
   .59150E+01   .84267E+02  -.23230E+02
   .59155E+01   .84274E+02  -.23227E+02
   .59160E+01   .84284E+02  -.23224E+02
   .59168E+01   .84302E+02  -.23219E+02
   .59175E+01   .84319E+02  -.23214E+02
   .59183E+01   .84340E+02  -.23209E+02
   .59190E+01   .84357E+02  -.23204E+02
   .59210E+01   .84406E+02  -.23191E+02
   .59230E+01   .84451E+02  -.23178E+02
   .59245E+01   .84484E+02  -.23169E+02
   .59260E+01   .84514E+02  -.23159E+02
   .59300E+01   .84588E+02  -.23133E+02
   .59330E+01   .84637E+02  -.23113E+02
   .59370E+01   .84698E+02  -.23087E+02
   .59400E+01   .84739E+02  -.23067E+02
   .59450E+01   .84802E+02  -.23035E+02
   .59500E+01   .84859E+02  -.23002E+02
   .59550E+01   .84911E+02  -.22969E+02
   .59600E+01   .84958E+02  -.22937E+02
   .59700E+01   .85044E+02  -.22882E+02
   .59800E+01   .85125E+02  -.22827E+02
   .59900E+01   .85201E+02  -.22772E+02
   .59950E+01   .85238E+02  -.22744E+02
   .60000E+01   .85273E+02  -.22717E+02
   .60100E+01   .85341E+02  -.22663E+02
   .60200E+01   .85406E+02  -.22610E+02
   .60350E+01   .85498E+02  -.22530E+02
   .60500E+01   .85585E+02  -.22450E+02
   .60700E+01   .85695E+02  -.22343E+02
   .61000E+01   .85848E+02  -.22183E+02
   .61300E+01   .85990E+02  -.22029E+02
   .61500E+01   .86080E+02  -.21927E+02
   .61800E+01   .86209E+02  -.21773E+02
   .62000E+01   .86291E+02  -.21670E+02
   .62300E+01   .86409E+02  -.21522E+02
   .62500E+01   .86484E+02  -.21424E+02
   .62700E+01   .86557E+02  -.21325E+02
   .63000E+01   .86663E+02  -.21177E+02
   .63500E+01   .86831E+02  -.20940E+02
   .63800E+01   .86926E+02  -.20798E+02
   .64038E+01   .87000E+02  -.20685E+02
   .64400E+01   .87108E+02  -.20521E+02
   .64800E+01   .87222E+02  -.20339E+02
   .65100E+01   .87305E+02  -.20203E+02
   .65500E+01   .87411E+02  -.20022E+02
   .65900E+01   .87512E+02  -.19849E+02
   .66300E+01   .87609E+02  -.19676E+02
   .66600E+01   .87678E+02  -.19546E+02
   .67000E+01   .87768E+02  -.19373E+02
   .67400E+01   .87854E+02  -.19209E+02
   .67800E+01   .87937E+02  -.19046E+02
   .68100E+01   .87997E+02  -.18923E+02
   .68500E+01   .88074E+02  -.18759E+02
   .69200E+01   .88203E+02  -.18484E+02
   .69600E+01   .88273E+02  -.18331E+02
   .70000E+01   .88341E+02  -.18178E+02
   .70300E+01   .88391E+02  -.18066E+02
   .70700E+01   .88454E+02  -.17918E+02
   .71100E+01   .88515E+02  -.17769E+02
   .71500E+01   .88574E+02  -.17621E+02
   .72200E+01   .88672E+02  -.17374E+02
   .73000E+01   .88776E+02  -.17092E+02
   .73500E+01   .88837E+02  -.16923E+02
   .74000E+01   .88896E+02  -.16754E+02
   .74500E+01   .88953E+02  -.16590E+02
   .75000E+01   .89008E+02  -.16427E+02
   .75700E+01   .89080E+02  -.16205E+02
   .76500E+01   .89157E+02  -.15950E+02
   .77200E+01   .89219E+02  -.15739E+02
   .78000E+01   .89285E+02  -.15497E+02
   .78500E+01   .89325E+02  -.15351E+02
   .79000E+01   .89362E+02  -.15206E+02
   .80000E+01   .89434E+02  -.14924E+02
   .80200E+01   .89448E+02  -.14868E+02
   .80340E+01   .89457E+02  -.14829E+02
   .80478E+01   .89466E+02  -.14790E+02
   .81100E+01   .89505E+02  -.14620E+02
   .81700E+01   .89539E+02  -.14456E+02
   .82400E+01   .89576E+02  -.14272E+02
   .83000E+01   .89605E+02  -.14114E+02
   .83500E+01   .89628E+02  -.13987E+02
   .84000E+01   .89649E+02  -.13860E+02
   .84500E+01   .89669E+02  -.13737E+02
   .85000E+01   .89687E+02  -.13614E+02
   .85700E+01   .89711E+02  -.13449E+02
   .86500E+01   .89736E+02  -.13261E+02
   .87200E+01   .89757E+02  -.13103E+02
   .88000E+01   .89777E+02  -.12923E+02
   .89000E+01   .89801E+02  -.12705E+02
   .90000E+01   .89821E+02  -.12494E+02
   .91500E+01   .89845E+02  -.12189E+02
   .93000E+01   .89865E+02  -.11896E+02
   .94000E+01   .89876E+02  -.11708E+02
   .95000E+01   .89886E+02  -.11524E+02
   .96500E+01   .89897E+02  -.11254E+02
   .98000E+01   .89903E+02  -.10994E+02
   .99000E+01   .89904E+02  -.10824E+02
   .10000E+02   .89903E+02  -.10659E+02
   .10150E+02   .89897E+02  -.10417E+02
   .10300E+02   .89886E+02  -.10184E+02
   .10450E+02   .89872E+02  -.99592E+01
   .10600E+02   .89854E+02  -.97427E+01
   .10750E+02   .89832E+02  -.95338E+01
   .10900E+02   .89808E+02  -.93322E+01
   .11100E+02   .89772E+02  -.90742E+01
   .11220E+02   .89748E+02  -.89250E+01
   .11400E+02   .89709E+02  -.87086E+01
   .11600E+02   .89664E+02  -.84773E+01
   .11800E+02   .89613E+02  -.82550E+01
   .11890E+02   .89589E+02  -.81581E+01
   .11987E+02   .89562E+02  -.80556E+01
   .12140E+02   .89519E+02  -.78986E+01
   .12300E+02   .89471E+02  -.77395E+01
   .12500E+02   .89408E+02  -.75479E+01
   .12700E+02   .89341E+02  -.73640E+01
   .12900E+02   .89272E+02  -.71873E+01
   .13100E+02   .89200E+02  -.70167E+01
   .13300E+02   .89123E+02  -.68519E+01
   .13500E+02   .89043E+02  -.66933E+01
   .13700E+02   .88958E+02  -.65406E+01
   .13900E+02   .88869E+02  -.63935E+01
   .14100E+02   .88776E+02  -.62520E+01
   .14300E+02   .88678E+02  -.61157E+01
   .14500E+02   .88576E+02  -.59842E+01
   .14700E+02   .88468E+02  -.58573E+01
   .14850E+02   .88383E+02  -.57650E+01
   .15000E+02   .88295E+02  -.56750E+01
   .15150E+02   .88203E+02  -.55873E+01
   .15300E+02   .88105E+02  -.54997E+01
   .15450E+02   .88003E+02  -.54163E+01
   .15600E+02   .87894E+02  -.53330E+01
   .15750E+02   .87779E+02  -.52536E+01
   .15900E+02   .87657E+02  -.51742E+01
   .16050E+02   .87527E+02  -.50985E+01
   .16130E+02   .87453E+02  -.50580E+01
   .16200E+02   .87387E+02  -.50227E+01
   .16280E+02   .87307E+02  -.49842E+01
   .16350E+02   .87235E+02  -.49505E+01
   .16430E+02   .87149E+02  -.49119E+01
   .16500E+02   .87070E+02  -.48782E+01
   .16570E+02   .86988E+02  -.48460E+01
   .16650E+02   .86890E+02  -.48092E+01
   .16730E+02   .86785E+02  -.47724E+01
   .16800E+02   .86689E+02  -.47402E+01
   .16880E+02   .86572E+02  -.47051E+01
   .16950E+02   .86463E+02  -.46744E+01
   .17020E+02   .86347E+02  -.46436E+01
   .17060E+02   .86278E+02  -.46261E+01
   .17100E+02   .86205E+02  -.46085E+01
   .17150E+02   .86110E+02  -.45876E+01
   .17200E+02   .86010E+02  -.45668E+01
   .17250E+02   .85904E+02  -.45459E+01
   .17300E+02   .85791E+02  -.45251E+01
   .17350E+02   .85670E+02  -.45042E+01
   .17390E+02   .85567E+02  -.44875E+01
   .17430E+02   .85458E+02  -.44708E+01
   .17479E+02   .85314E+02  -.44504E+01
   .17495E+02   .85264E+02  -.44440E+01
   .17510E+02   .85216E+02  -.44379E+01
   .17540E+02   .85116E+02  -.44259E+01
   .17570E+02   .85010E+02  -.44138E+01
   .17600E+02   .84898E+02  -.44018E+01
   .17630E+02   .84777E+02  -.43900E+01
   .17650E+02   .84692E+02  -.43821E+01
   .17670E+02   .84603E+02  -.43743E+01
   .17700E+02   .84459E+02  -.43625E+01
   .17720E+02   .84356E+02  -.43547E+01
   .17750E+02   .84190E+02  -.43429E+01
   .17780E+02   .84007E+02  -.43311E+01
   .17800E+02   .83872E+02  -.43233E+01
   .17820E+02   .83727E+02  -.43157E+01
   .17840E+02   .83569E+02  -.43081E+01
   .17855E+02   .83440E+02  -.43024E+01
   .17870E+02   .83301E+02  -.42967E+01
   .17885E+02   .83150E+02  -.42910E+01
   .17900E+02   .82985E+02  -.42853E+01
   .17915E+02   .82804E+02  -.42796E+01
   .17923E+02   .82698E+02  -.42766E+01
   .17930E+02   .82601E+02  -.42739E+01
   .17940E+02   .82452E+02  -.42701E+01
   .17950E+02   .82289E+02  -.42663E+01
   .17960E+02   .82110E+02  -.42625E+01
   .17970E+02   .81911E+02  -.42587E+01
   .17977E+02   .81758E+02  -.42561E+01
   .17985E+02   .81565E+02  -.42530E+01
   .17993E+02   .81349E+02  -.42500E+01
   .18000E+02   .81137E+02  -.42473E+01
   .18004E+02   .81003E+02  -.42458E+01
   .18008E+02   .80859E+02  -.42443E+01
   .18012E+02   .80703E+02  -.42428E+01
   .18015E+02   .80577E+02  -.42416E+01
   .18019E+02   .80394E+02  -.42401E+01
   .18023E+02   .80191E+02  -.42386E+01
   .18026E+02   .80024E+02  -.42375E+01
   .18030E+02   .79775E+02  -.42359E+01
   .18033E+02   .79564E+02  -.42348E+01
   .18035E+02   .79410E+02  -.42340E+01
   .18038E+02   .79153E+02  -.42329E+01
   .18040E+02   .78962E+02  -.42322E+01
   .18043E+02   .78635E+02  -.42310E+01
   .18045E+02   .78384E+02  -.42302E+01
   .18047E+02   .78099E+02  -.42295E+01
   .18050E+02   .77584E+02  -.42284E+01
   .18052E+02   .77273E+02  -.42278E+01
   .18053E+02   .76912E+02  -.42272E+01
   .18055E+02   .76486E+02  -.42267E+01
   .18056E+02   .75968E+02  -.42261E+01
   .18058E+02   .75317E+02  -.42255E+01
   .18058E+02   .74949E+02  -.42252E+01
   .18059E+02   .74455E+02  -.42249E+01
   .18060E+02   .73940E+02  -.42247E+01
   .18060E+02   .73212E+02  -.42244E+01
   .18061E+02   .72235E+02  -.42241E+01
   .18062E+02   .70835E+02  -.42238E+01
   .18062E+02   .70696E+02  -.46626E+01
   .18062E+02   .70656E+02  -.51013E+01
   .18062E+02   .70522E+02  -.59789E+01
   .18063E+02   .69876E+02  -.42235E+01
   .18063E+02   .68839E+02  -.42234E+01
   .18063E+02   .67392E+02  -.42234E+01
   .18064E+02   .68984E+02  -.13647E+02
   .18064E+02   .70336E+02  -.42231E+01
   .18065E+02   .66485E+02  -.42229E+01
   .18065E+02   .61409E+02  -.42227E+01
   .18066E+02   .51208E+02  -.42224E+01
   .18066E+02   .14344E+02  -.42222E+01
   .18066E+02   .49325E+02  -.13806E+03
   .18067E+02   .66787E+02  -.20498E+03
   .18067E+02   .13661E+03  -.42220E+01
   .18067E+02   .11497E+03  -.42219E+01
   .18067E+02   .10330E+03  -.42218E+01
   .18068E+02   .96413E+02  -.48488E+01
   .18068E+02   .91549E+02  -.54758E+01
   .18068E+02   .87456E+02  -.46396E+01
   .18068E+02   .85361E+02  -.42215E+01
   .18068E+02   .82990E+02  -.42215E+01
   .18068E+02   .80834E+02  -.42215E+01
   .18069E+02   .84533E+02  -.29641E+02
   .18069E+02   .89652E+02  -.42212E+01
   .18069E+02   .87041E+02  -.42212E+01
   .18069E+02   .85878E+02  -.11286E+02
   .18069E+02   .85612E+02  -.14818E+02
   .18070E+02   .85748E+02  -.95196E+01
   .18070E+02   .85842E+02  -.42209E+01
   .18070E+02   .81782E+02  -.42208E+01
   .18070E+02   .78713E+02  -.63863E+01
   .18071E+02   .78265E+02  -.96522E+01
   .18071E+02   .78709E+02  -.11045E+02
   .18071E+02   .80082E+02  -.10926E+02
   .18072E+02   .80394E+02  -.10809E+02
   .18072E+02   .80500E+02  -.10741E+02
   .18072E+02   .80584E+02  -.10654E+02
   .18072E+02   .80608E+02  -.10597E+02
   .18072E+02   .80620E+02  -.10540E+02
   .18073E+02   .80622E+02  -.10496E+02
   .18073E+02   .80616E+02  -.10452E+02
   .18073E+02   .80566E+02  -.10409E+02
   .18073E+02   .80598E+02  -.10387E+02
   .18073E+02   .80582E+02  -.10353E+02
   .18073E+02   .80564E+02  -.10319E+02
   .18074E+02   .80546E+02  -.10288E+02
   .18074E+02   .80526E+02  -.10257E+02
   .18074E+02   .80485E+02  -.10212E+02
   .18075E+02   .80460E+02  -.10182E+02
   .18075E+02   .80425E+02  -.10142E+02
   .18075E+02   .80391E+02  -.10116E+02
   .18076E+02   .80365E+02  -.10091E+02
   .18076E+02   .80345E+02  -.10077E+02
   .18076E+02   .80323E+02  -.10059E+02
   .18077E+02   .80287E+02  -.10034E+02
   .18078E+02   .80267E+02  -.10019E+02
   .18079E+02   .80257E+02  -.10015E+02
   .18079E+02   .80252E+02  -.10010E+02
   .18080E+02   .80250E+02  -.10008E+02
   .18081E+02   .80272E+02  -.10014E+02
   .18083E+02   .80312E+02  -.10021E+02
   .18084E+02   .80347E+02  -.10026E+02
   .18085E+02   .80386E+02  -.10030E+02
   .18087E+02   .80451E+02  -.10032E+02
   .18088E+02   .80520E+02  -.10033E+02
   .18089E+02   .80567E+02  -.10030E+02
   .18090E+02   .80614E+02  -.10027E+02
   .18092E+02   .80706E+02  -.10014E+02
   .18094E+02   .80795E+02  -.10000E+02
   .18096E+02   .80876E+02  -.99822E+01
   .18098E+02   .80953E+02  -.99644E+01
   .18100E+02   .81024E+02  -.99476E+01
   .18102E+02   .81090E+02  -.99309E+01
   .18104E+02   .81136E+02  -.99206E+01
   .18105E+02   .81180E+02  -.99103E+01
   .18109E+02   .81289E+02  -.98919E+01
   .18113E+02   .81390E+02  -.98832E+01
   .18116E+02   .81463E+02  -.98821E+01
   .18120E+02   .81560E+02  -.98851E+01
   .18127E+02   .81729E+02  -.98950E+01
   .18131E+02   .81826E+02  -.98972E+01
   .18135E+02   .81918E+02  -.98995E+01
   .18139E+02   .82006E+02  -.98995E+01
   .18142E+02   .82070E+02  -.98995E+01
   .18146E+02   .82155E+02  -.98963E+01
   .18150E+02   .82235E+02  -.98931E+01
   .18154E+02   .82310E+02  -.98889E+01
   .18158E+02   .82381E+02  -.98848E+01
   .18165E+02   .82497E+02  -.98775E+01
   .18173E+02   .82623E+02  -.98732E+01
   .18180E+02   .82728E+02  -.98694E+01
   .18188E+02   .82843E+02  -.98639E+01
   .18195E+02   .82938E+02  -.98591E+01
   .18203E+02   .83041E+02  -.98536E+01
   .18210E+02   .83127E+02  -.98488E+01
   .18217E+02   .83208E+02  -.98434E+01
   .18225E+02   .83298E+02  -.98373E+01
   .18240E+02   .83454E+02  -.98258E+01
   .18255E+02   .83599E+02  -.98155E+01
   .18270E+02   .83733E+02  -.98051E+01
   .18285E+02   .83860E+02  -.97948E+01
   .18300E+02   .83980E+02  -.97844E+01
   .18315E+02   .84093E+02  -.97719E+01
   .18330E+02   .84200E+02  -.97595E+01
   .18340E+02   .84267E+02  -.97512E+01
   .18350E+02   .84332E+02  -.97428E+01
   .18380E+02   .84515E+02  -.97179E+01
   .18400E+02   .84628E+02  -.97013E+01
   .18420E+02   .84735E+02  -.96838E+01
   .18450E+02   .84884E+02  -.96577E+01
   .18470E+02   .84976E+02  -.96402E+01
   .18500E+02   .85107E+02  -.96141E+01
   .18530E+02   .85228E+02  -.95891E+01
   .18570E+02   .85378E+02  -.95558E+01
   .18610E+02   .85516E+02  -.95225E+01
   .18650E+02   .85644E+02  -.94892E+01
   .18690E+02   .85763E+02  -.94559E+01
   .18730E+02   .85874E+02  -.94226E+01
   .18770E+02   .85978E+02  -.93892E+01
   .18800E+02   .86052E+02  -.93643E+01
   .18850E+02   .86169E+02  -.93244E+01
   .18900E+02   .86277E+02  -.92844E+01
   .18950E+02   .86379E+02  -.92445E+01
   .19000E+02   .86475E+02  -.92046E+01
   .19030E+02   .86530E+02  -.91800E+01
   .19070E+02   .86600E+02  -.91472E+01
   .19110E+02   .86665E+02  -.91145E+01
   .19150E+02   .86727E+02  -.90817E+01
   .19190E+02   .86787E+02  -.90489E+01
   .19230E+02   .86843E+02  -.90161E+01
   .19300E+02   .86935E+02  -.89588E+01
   .19350E+02   .86996E+02  -.89196E+01
   .19400E+02   .87053E+02  -.88804E+01
   .19450E+02   .87107E+02  -.88412E+01
   .19500E+02   .87158E+02  -.88020E+01
   .19570E+02   .87224E+02  -.87503E+01
   .19650E+02   .87294E+02  -.86913E+01
   .19730E+02   .87358E+02  -.86322E+01
   .19800E+02   .87410E+02  -.85806E+01
   .19850E+02   .87444E+02  -.85449E+01
   .19900E+02   .87476E+02  -.85092E+01
   .20000E+02   .87534E+02  -.84378E+01
   .20020E+02   .87545E+02  -.84238E+01
   .20050E+02   .87560E+02  -.84028E+01
   .20110E+02   .87589E+02  -.83607E+01
   .20160E+02   .87611E+02  -.83262E+01
   .20190E+02   .87624E+02  -.83054E+01
   .20219E+02   .87635E+02  -.82856E+01
   .20290E+02   .87661E+02  -.82380E+01
   .20360E+02   .87683E+02  -.81912E+01
   .20430E+02   .87701E+02  -.81445E+01
   .20500E+02   .87716E+02  -.80977E+01
   .20600E+02   .87733E+02  -.80310E+01
   .20650E+02   .87739E+02  -.79976E+01
   .20700E+02   .87743E+02  -.79642E+01
   .20780E+02   .87745E+02  -.79131E+01
   .20850E+02   .87743E+02  -.78684E+01
   .20930E+02   .87737E+02  -.78173E+01
   .21000E+02   .87726E+02  -.77726E+01
   .21050E+02   .87717E+02  -.77406E+01
   .21100E+02   .87705E+02  -.77087E+01
   .21150E+02   .87690E+02  -.76768E+01
   .21200E+02   .87674E+02  -.76448E+01
   .21280E+02   .87643E+02  -.75954E+01
   .21350E+02   .87609E+02  -.75522E+01
   .21430E+02   .87562E+02  -.75028E+01
   .21500E+02   .87514E+02  -.74595E+01
   .21550E+02   .87475E+02  -.74296E+01
   .21600E+02   .87432E+02  -.73997E+01
   .21650E+02   .87383E+02  -.73698E+01
   .21700E+02   .87329E+02  -.73399E+01
   .21750E+02   .87269E+02  -.73108E+01
   .21800E+02   .87202E+02  -.72817E+01
   .21850E+02   .87126E+02  -.72526E+01
   .21880E+02   .87076E+02  -.72352E+01
   .21900E+02   .87040E+02  -.72235E+01
   .21930E+02   .86983E+02  -.72066E+01
   .21960E+02   .86921E+02  -.71897E+01
   .21990E+02   .86853E+02  -.71728E+01
   .22030E+02   .86752E+02  -.71502E+01
   .22060E+02   .86667E+02  -.71333E+01
   .22080E+02   .86605E+02  -.71220E+01
   .22100E+02   .86538E+02  -.71107E+01
   .22115E+02   .86484E+02  -.71023E+01
   .22130E+02   .86427E+02  -.70938E+01
   .22150E+02   .86343E+02  -.70825E+01
   .22163E+02   .86284E+02  -.70752E+01
   .22170E+02   .86251E+02  -.70713E+01
   .22176E+02   .86221E+02  -.70680E+01
   .22190E+02   .86147E+02  -.70603E+01
   .22205E+02   .86062E+02  -.70520E+01
   .22220E+02   .85966E+02  -.70438E+01
   .22230E+02   .85897E+02  -.70382E+01
   .22240E+02   .85822E+02  -.70327E+01
   .22248E+02   .85757E+02  -.70283E+01
   .22255E+02   .85696E+02  -.70245E+01
   .22262E+02   .85631E+02  -.70206E+01
   .22270E+02   .85550E+02  -.70162E+01
   .22280E+02   .85439E+02  -.70107E+01
   .22285E+02   .85378E+02  -.70080E+01
   .22290E+02   .85313E+02  -.70053E+01
   .22297E+02   .85213E+02  -.70015E+01
   .22305E+02   .85085E+02  -.69971E+01
   .22313E+02   .84936E+02  -.69928E+01
   .22320E+02   .84785E+02  -.69890E+01
   .22325E+02   .84660E+02  -.69863E+01
   .22330E+02   .84518E+02  -.69835E+01
   .22335E+02   .84352E+02  -.69808E+01
   .22338E+02   .84237E+02  -.69792E+01
   .22340E+02   .84153E+02  -.69781E+01
   .22344E+02   .83962E+02  -.69759E+01
   .22347E+02   .83792E+02  -.69743E+01
   .22349E+02   .83661E+02  -.69732E+01
   .22351E+02   .83514E+02  -.69721E+01
   .22353E+02   .83390E+02  -.69713E+01
   .22354E+02   .83250E+02  -.69705E+01
   .22356E+02   .83034E+02  -.69694E+01
   .22358E+02   .82773E+02  -.69683E+01
   .22360E+02   .82535E+02  -.69675E+01
   .22361E+02   .82246E+02  -.69667E+01
   .22362E+02   .81882E+02  -.69659E+01
   .22363E+02   .81677E+02  -.69655E+01
   .22364E+02   .81402E+02  -.69650E+01
   .22365E+02   .80977E+02  -.69645E+01
   .22366E+02   .80405E+02  -.69640E+01
   .22367E+02   .79741E+02  -.69635E+01
   .22368E+02   .78324E+02  -.69630E+01
   .22368E+02   .78484E+02  -.79031E+01
   .22368E+02   .78640E+02  -.88431E+01
   .22368E+02   .78942E+02  -.10723E+02
   .22368E+02   .79465E+02  -.69626E+01
   .22369E+02   .77335E+02  -.69621E+01
   .22370E+02   .76428E+02  -.69620E+01
   .22370E+02   .74887E+02  -.69618E+01
   .22370E+02   .73297E+02  -.69616E+01
   .22371E+02   .70042E+02  -.69614E+01
   .22371E+02   .63696E+02  -.69612E+01
   .22372E+02   .52579E+02  -.69610E+01
   .22372E+02   .67148E+02  -.58734E+02
   .22372E+02   .81721E+02  -.11051E+03
   .22372E+02   .11081E+03  -.69605E+01
   .22373E+02   .99520E+02  -.69603E+01
   .22373E+02   .92807E+02  -.69601E+01
   .22374E+02   .88872E+02  -.69599E+01
   .22374E+02   .84919E+02  -.69597E+01
   .22374E+02   .85065E+02  -.69595E+01
   .22374E+02   .85551E+02  -.16739E+02
   .22375E+02   .85624E+02  -.80860E+01
   .22375E+02   .86090E+02  -.87135E+01
   .22375E+02   .86931E+02  -.90423E+01
   .22375E+02   .86686E+02  -.13928E+02
   .22376E+02   .87640E+02  -.10074E+02
   .22376E+02   .86956E+02  -.10049E+02
   .22376E+02   .86477E+02  -.10014E+02
   .22377E+02   .86240E+02  -.99950E+01
   .22377E+02   .86002E+02  -.99691E+01
   .22377E+02   .85905E+02  -.99609E+01
   .22378E+02   .85779E+02  -.99486E+01
   .22378E+02   .85707E+02  -.99403E+01
   .22378E+02   .85611E+02  -.99280E+01
   .22378E+02   .85526E+02  -.99207E+01
   .22378E+02   .85477E+02  -.99158E+01
   .22379E+02   .85369E+02  -.99037E+01
   .22379E+02   .85296E+02  -.98984E+01
   .22380E+02   .85233E+02  -.98930E+01
   .22381E+02   .85144E+02  -.98880E+01
   .22381E+02   .85065E+02  -.98874E+01
   .22382E+02   .85016E+02  -.98869E+01
   .22383E+02   .84971E+02  -.98900E+01
   .22383E+02   .84943E+02  -.98927E+01
   .22384E+02   .84922E+02  -.98968E+01
   .22385E+02   .84905E+02  -.99014E+01
   .22386E+02   .84891E+02  -.99087E+01
   .22388E+02   .84893E+02  -.99161E+01
   .22389E+02   .84905E+02  -.99185E+01
   .22391E+02   .84924E+02  -.99210E+01
   .22392E+02   .84947E+02  -.99183E+01
   .22394E+02   .84972E+02  -.99156E+01
   .22396E+02   .84997E+02  -.99092E+01
   .22397E+02   .85023E+02  -.99028E+01
   .22399E+02   .85048E+02  -.98949E+01
   .22400E+02   .85071E+02  -.98870E+01
   .22402E+02   .85102E+02  -.98776E+01
   .22404E+02   .85131E+02  -.98682E+01
   .22406E+02   .85159E+02  -.98588E+01
   .22408E+02   .85183E+02  -.98494E+01
   .22410E+02   .85206E+02  -.98450E+01
   .22412E+02   .85230E+02  -.98406E+01
   .22415E+02   .85264E+02  -.98341E+01
   .22419E+02   .85308E+02  -.98337E+01
   .22423E+02   .85353E+02  -.98333E+01
   .22430E+02   .85432E+02  -.98374E+01
   .22438E+02   .85521E+02  -.98368E+01
   .22445E+02   .85595E+02  -.98362E+01
   .22453E+02   .85673E+02  -.98289E+01
   .22460E+02   .85734E+02  -.98224E+01
   .22467E+02   .85791E+02  -.98186E+01
   .22475E+02   .85852E+02  -.98142E+01
   .22483E+02   .85910E+02  -.98099E+01
   .22490E+02   .85958E+02  -.98061E+01
   .22498E+02   .86010E+02  -.98013E+01
   .22505E+02   .86053E+02  -.97971E+01
   .22520E+02   .86139E+02  -.97881E+01
   .22535E+02   .86216E+02  -.97791E+01
   .22550E+02   .86287E+02  -.97701E+01
   .22560E+02   .86332E+02  -.97643E+01
   .22570E+02   .86374E+02  -.97585E+01
   .22585E+02   .86433E+02  -.97498E+01
   .22600E+02   .86489E+02  -.97411E+01
   .22620E+02   .86557E+02  -.97276E+01
   .22640E+02   .86618E+02  -.97142E+01
   .22660E+02   .86674E+02  -.97007E+01
   .22680E+02   .86725E+02  -.96872E+01
   .22700E+02   .86771E+02  -.96740E+01
   .22720E+02   .86813E+02  -.96608E+01
   .22740E+02   .86851E+02  -.96476E+01
   .22767E+02   .86896E+02  -.96300E+01
   .22790E+02   .86931E+02  -.96143E+01
   .22820E+02   .86968E+02  -.95941E+01
   .22850E+02   .86998E+02  -.95738E+01
   .22880E+02   .87019E+02  -.95536E+01
   .22910E+02   .87031E+02  -.95334E+01
   .22940E+02   .87033E+02  -.95131E+01
   .22955E+02   .87029E+02  -.95030E+01
   .22970E+02   .87022E+02  -.94929E+01
   .22985E+02   .87012E+02  -.94828E+01
   .23000E+02   .86997E+02  -.94727E+01
   .23010E+02   .86985E+02  -.94662E+01
   .23020E+02   .86970E+02  -.94597E+01
   .23030E+02   .86952E+02  -.94532E+01
   .23040E+02   .86931E+02  -.94467E+01
   .23050E+02   .86906E+02  -.94403E+01
   .23060E+02   .86877E+02  -.94338E+01
   .23070E+02   .86842E+02  -.94273E+01
   .23080E+02   .86801E+02  -.94208E+01
   .23090E+02   .86751E+02  -.94143E+01
   .23095E+02   .86722E+02  -.94111E+01
   .23100E+02   .86690E+02  -.94078E+01
   .23105E+02   .86654E+02  -.94046E+01
   .23110E+02   .86614E+02  -.94014E+01
   .23115E+02   .86567E+02  -.93981E+01
   .23120E+02   .86514E+02  -.93949E+01
   .23125E+02   .86451E+02  -.93916E+01
   .23128E+02   .86408E+02  -.93897E+01
   .23130E+02   .86376E+02  -.93884E+01
   .23133E+02   .86323E+02  -.93864E+01
   .23135E+02   .86283E+02  -.93851E+01
   .23137E+02   .86239E+02  -.93838E+01
   .23140E+02   .86163E+02  -.93819E+01
   .23142E+02   .86104E+02  -.93806E+01
   .23144E+02   .86035E+02  -.93793E+01
   .23146E+02   .85976E+02  -.93783E+01
   .23147E+02   .85908E+02  -.93774E+01
   .23148E+02   .85856E+02  -.93767E+01
   .23149E+02   .85798E+02  -.93761E+01
   .23150E+02   .85694E+02  -.93751E+01
   .23152E+02   .85563E+02  -.93741E+01
   .23153E+02   .85451E+02  -.93735E+01
   .23154E+02   .85308E+02  -.93728E+01
   .23154E+02   .85219E+02  -.93725E+01
   .23155E+02   .85113E+02  -.93722E+01
   .23156E+02   .84983E+02  -.93719E+01
   .23156E+02   .84815E+02  -.93715E+01
   .23156E+02   .84587E+02  -.93712E+01
   .23157E+02   .84242E+02  -.93709E+01
   .23157E+02   .83621E+02  -.93706E+01
   .23158E+02   .81927E+02  -.93702E+01
   .23158E+02   .82218E+02  -.11427E+02
   .23158E+02   .82889E+02  -.13483E+02
   .23158E+02   .83550E+02  -.15540E+02
   .23159E+02   .84880E+02  -.19653E+02
   .23159E+02   .86193E+02  -.15540E+02
   .23159E+02   .87561E+02  -.93696E+01
   .23159E+02   .86165E+02  -.93694E+01
   .23160E+02   .84932E+02  -.93692E+01
   .23160E+02   .84843E+02  -.93690E+01
   .23160E+02   .84758E+02  -.12088E+02
   .23160E+02   .84749E+02  -.95931E+01
   .23160E+02   .84696E+02  -.97749E+01
   .23160E+02   .84931E+02  -.99373E+01
   .23161E+02   .85199E+02  -.10102E+02
   .23161E+02   .85364E+02  -.12913E+02
   .23161E+02   .86207E+02  -.10868E+02
   .23162E+02   .86086E+02  -.10868E+02
   .23162E+02   .86017E+02  -.10868E+02
   .23162E+02   .85979E+02  -.10868E+02
   .23162E+02   .85955E+02  -.10868E+02
   .23163E+02   .85935E+02  -.10867E+02
   .23163E+02   .85931E+02  -.10867E+02
   .23163E+02   .85938E+02  -.10867E+02
   .23164E+02   .85951E+02  -.10866E+02
   .23164E+02   .85968E+02  -.10866E+02
   .23165E+02   .85987E+02  -.10866E+02
   .23166E+02   .86005E+02  -.10865E+02
   .23166E+02   .86025E+02  -.10865E+02
   .23167E+02   .86044E+02  -.10865E+02
   .23167E+02   .86063E+02  -.10864E+02
   .23168E+02   .86100E+02  -.10863E+02
   .23169E+02   .86135E+02  -.10863E+02
   .23170E+02   .86169E+02  -.10862E+02
   .23171E+02   .86201E+02  -.10861E+02
   .23172E+02   .86231E+02  -.10861E+02
   .23173E+02   .86260E+02  -.10860E+02
   .23174E+02   .86301E+02  -.10859E+02
   .23176E+02   .86339E+02  -.10858E+02
   .23178E+02   .86386E+02  -.10856E+02
   .23180E+02   .86430E+02  -.10855E+02
   .23181E+02   .86461E+02  -.10854E+02
   .23183E+02   .86490E+02  -.10853E+02
   .23186E+02   .86544E+02  -.10851E+02
   .23190E+02   .86609E+02  -.10848E+02
   .23194E+02   .86668E+02  -.10845E+02
   .23198E+02   .86722E+02  -.10842E+02
   .23202E+02   .86771E+02  -.10839E+02
   .23205E+02   .86806E+02  -.10837E+02
   .23209E+02   .86850E+02  -.10834E+02
   .23213E+02   .86890E+02  -.10832E+02
   .23220E+02   .86956E+02  -.10827E+02
   .23227E+02   .87017E+02  -.10822E+02
   .23235E+02   .87079E+02  -.10816E+02
   .23243E+02   .87138E+02  -.10810E+02
   .23250E+02   .87185E+02  -.10805E+02
   .23258E+02   .87236E+02  -.10800E+02
   .23265E+02   .87278E+02  -.10795E+02
   .23280E+02   .87361E+02  -.10784E+02
   .23295E+02   .87437E+02  -.10773E+02
   .23310E+02   .87507E+02  -.10763E+02
   .23325E+02   .87573E+02  -.10752E+02
   .23340E+02   .87634E+02  -.10741E+02
   .23355E+02   .87692E+02  -.10731E+02
   .23370E+02   .87746E+02  -.10720E+02
   .23385E+02   .87799E+02  -.10709E+02
   .23400E+02   .87848E+02  -.10699E+02
   .23420E+02   .87912E+02  -.10684E+02
   .23450E+02   .88001E+02  -.10663E+02
   .23470E+02   .88057E+02  -.10649E+02
   .23500E+02   .88137E+02  -.10628E+02
   .23520E+02   .88188E+02  -.10613E+02
   .23550E+02   .88260E+02  -.10592E+02
   .23570E+02   .88307E+02  -.10578E+02
   .23600E+02   .88374E+02  -.10557E+02
   .23640E+02   .88459E+02  -.10530E+02
   .23680E+02   .88539E+02  -.10502E+02
   .23720E+02   .88616E+02  -.10475E+02
   .23750E+02   .88671E+02  -.10455E+02
   .23780E+02   .88724E+02  -.10435E+02
   .23820E+02   .88793E+02  -.10408E+02
   .23860E+02   .88858E+02  -.10381E+02
   .23900E+02   .88922E+02  -.10354E+02
   .23950E+02   .88998E+02  -.10320E+02
   .24000E+02   .89071E+02  -.10286E+02
   .24050E+02   .89141E+02  -.10252E+02
   .24100E+02   .89208E+02  -.10219E+02
   .24180E+02   .89311E+02  -.10167E+02
   .24250E+02   .89397E+02  -.10122E+02
   .24320E+02   .89479E+02  -.10078E+02
   .24400E+02   .89568E+02  -.10026E+02
   .24450E+02   .89621E+02  -.99942E+01
   .24500E+02   .89673E+02  -.99622E+01
   .24600E+02   .89773E+02  -.98981E+01
   .24700E+02   .89868E+02  -.98369E+01
   .24800E+02   .89959E+02  -.97758E+01
   .24900E+02   .90045E+02  -.97146E+01
   .25000E+02   .90127E+02  -.96534E+01
   .25070E+02   .90182E+02  -.96121E+01
   .25150E+02   .90243E+02  -.95649E+01
   .25230E+02   .90302E+02  -.95177E+01
   .25300E+02   .90353E+02  -.94764E+01
   .25380E+02   .90409E+02  -.94306E+01
   .25450E+02   .90456E+02  -.93905E+01
   .25520E+02   .90502E+02  -.93504E+01
   .25600E+02   .90553E+02  -.93046E+01
   .25680E+02   .90603E+02  -.92602E+01
   .25750E+02   .90645E+02  -.92213E+01
   .25820E+02   .90687E+02  -.91824E+01
   .25900E+02   .90733E+02  -.91379E+01
   .25970E+02   .90772E+02  -.91002E+01
   .26050E+02   .90816E+02  -.90570E+01
   .26200E+02   .90895E+02  -.89761E+01
   .26350E+02   .90970E+02  -.88975E+01
   .26500E+02   .91041E+02  -.88189E+01
   .26650E+02   .91110E+02  -.87425E+01
   .26800E+02   .91175E+02  -.86662E+01
   .26950E+02   .91238E+02  -.85919E+01
   .27020E+02   .91267E+02  -.85572E+01
   .27100E+02   .91298E+02  -.85175E+01
   .27200E+02   .91337E+02  -.84694E+01
   .27300E+02   .91374E+02  -.84213E+01
   .27390E+02   .91407E+02  -.83779E+01
   .27470E+02   .91436E+02  -.83394E+01
   .27540E+02   .91460E+02  -.83068E+01
   .27600E+02   .91481E+02  -.82788E+01
   .27800E+02   .91547E+02  -.81856E+01
   .27950E+02   .91594E+02  -.81177E+01
   .28100E+02   .91640E+02  -.80498E+01
   .28250E+02   .91684E+02  -.79838E+01
   .28400E+02   .91726E+02  -.79177E+01
   .28550E+02   .91767E+02  -.78534E+01
   .28700E+02   .91806E+02  -.77892E+01
   .28800E+02   .91831E+02  -.77476E+01
   .28900E+02   .91856E+02  -.77061E+01
   .29000E+02   .91880E+02  -.76646E+01
   .29100E+02   .91903E+02  -.76231E+01
   .29250E+02   .91938E+02  -.75627E+01
   .29400E+02   .91971E+02  -.75023E+01
   .29550E+02   .92003E+02  -.74434E+01
   .29700E+02   .92033E+02  -.73846E+01
   .29850E+02   .92063E+02  -.73273E+01
   .29920E+02   .92077E+02  -.73005E+01
   .30000E+02   .92092E+02  -.72699E+01
   .30200E+02   .92129E+02  -.71958E+01
   .30400E+02   .92164E+02  -.71217E+01
   .30600E+02   .92198E+02  -.70500E+01
   .30800E+02   .92230E+02  -.69783E+01
   .31000E+02   .92261E+02  -.69090E+01
   .31200E+02   .92291E+02  -.68397E+01
   .31350E+02   .92313E+02  -.67891E+01
   .31500E+02   .92334E+02  -.67386E+01
   .31600E+02   .92348E+02  -.67056E+01
   .31700E+02   .92361E+02  -.66726E+01
   .31800E+02   .92374E+02  -.66396E+01
   .31900E+02   .92387E+02  -.66067E+01
   .32000E+02   .92399E+02  -.65747E+01
   .32100E+02   .92412E+02  -.65428E+01
   .32200E+02   .92424E+02  -.65108E+01
   .32300E+02   .92435E+02  -.64789E+01
   .32450E+02   .92452E+02  -.64323E+01
   .32600E+02   .92469E+02  -.63857E+01
   .32800E+02   .92491E+02  -.63252E+01
   .32900E+02   .92501E+02  -.62950E+01
   .33000E+02   .92512E+02  -.62648E+01
   .33100E+02   .92522E+02  -.62355E+01
   .33200E+02   .92532E+02  -.62062E+01
   .33300E+02   .92541E+02  -.61770E+01
   .33400E+02   .92551E+02  -.61477E+01
   .33500E+02   .92560E+02  -.61184E+01
   .33600E+02   .92569E+02  -.60892E+01
   .33700E+02   .92578E+02  -.60599E+01
   .33800E+02   .92586E+02  -.60306E+01
   .33950E+02   .92599E+02  -.59889E+01
   .34030E+02   .92605E+02  -.59667E+01
   .34100E+02   .92611E+02  -.59472E+01
   .34200E+02   .92619E+02  -.59194E+01
   .34300E+02   .92627E+02  -.58916E+01
   .34400E+02   .92634E+02  -.58638E+01
   .34500E+02   .92641E+02  -.58360E+01
   .34600E+02   .92648E+02  -.58096E+01
   .34700E+02   .92655E+02  -.57832E+01
   .34900E+02   .92669E+02  -.57304E+01
   .35000E+02   .92675E+02  -.57040E+01
   .35100E+02   .92681E+02  -.56776E+01
   .35200E+02   .92688E+02  -.56512E+01
   .35300E+02   .92693E+02  -.56248E+01
   .35400E+02   .92699E+02  -.55998E+01
   .35500E+02   .92705E+02  -.55748E+01
   .35600E+02   .92710E+02  -.55497E+01
   .35700E+02   .92716E+02  -.55247E+01
   .35900E+02   .92726E+02  -.54747E+01
   .36030E+02   .92732E+02  -.54422E+01
   .36160E+02   .92739E+02  -.54110E+01
   .36300E+02   .92745E+02  -.53775E+01
   .36500E+02   .92754E+02  -.53296E+01
   .36800E+02   .92766E+02  -.52602E+01
   .37000E+02   .92774E+02  -.52140E+01
   .37300E+02   .92785E+02  -.51470E+01
   .37500E+02   .92791E+02  -.51023E+01
   .37800E+02   .92801E+02  -.50376E+01
   .38000E+02   .92807E+02  -.49945E+01
   .38300E+02   .92815E+02  -.49321E+01
   .38500E+02   .92820E+02  -.48905E+01
   .38800E+02   .92827E+02  -.48301E+01
   .39000E+02   .92831E+02  -.47899E+01
   .39300E+02   .92838E+02  -.47316E+01
   .39500E+02   .92841E+02  -.46927E+01
   .39800E+02   .92847E+02  -.46362E+01
   .40000E+02   .92850E+02  -.45986E+01
   .40200E+02   .92853E+02  -.45623E+01
   .40400E+02   .92856E+02  -.45259E+01
   .40600E+02   .92858E+02  -.44896E+01
   .40800E+02   .92861E+02  -.44532E+01
   .41100E+02   .92864E+02  -.44013E+01
   .41500E+02   .92867E+02  -.43320E+01
   .41900E+02   .92869E+02  -.42660E+01
   .42300E+02   .92871E+02  -.42000E+01
   .42600E+02   .92872E+02  -.41527E+01
   .43000E+02   .92873E+02  -.40896E+01
   .43400E+02   .92874E+02  -.40294E+01
   .43800E+02   .92874E+02  -.39692E+01
   .44100E+02   .92873E+02  -.39260E+01
   .44500E+02   .92872E+02  -.38684E+01
   .44900E+02   .92871E+02  -.38131E+01
   .45300E+02   .92870E+02  -.37577E+01
   .45600E+02   .92868E+02  -.37178E+01
   .46000E+02   .92866E+02  -.36644E+01
   .46500E+02   .92863E+02  -.36000E+01
   .47000E+02   .92858E+02  -.35375E+01
   .47500E+02   .92854E+02  -.34774E+01
   .48000E+02   .92849E+02  -.34174E+01
   .48500E+02   .92843E+02  -.33606E+01
   .49000E+02   .92838E+02  -.33038E+01
   .49500E+02   .92832E+02  -.32493E+01
   .50000E+02   .92826E+02  -.31962E+01
   .50500E+02   .92819E+02  -.31448E+01
   .51000E+02   .92812E+02  -.30934E+01
   .51500E+02   .92805E+02  -.30446E+01
   .52000E+02   .92798E+02  -.29958E+01
   .53000E+02   .92782E+02  -.29031E+01
   .54000E+02   .92766E+02  -.28149E+01
   .55000E+02   .92749E+02  -.27310E+01
   .56000E+02   .92732E+02  -.26504E+01
   .56800E+02   .92718E+02  -.25887E+01
   .57530E+02   .92705E+02  -.25343E+01
   .58000E+02   .92697E+02  -.25003E+01
   .58500E+02   .92687E+02  -.24649E+01
   .59540E+02   .92668E+02  -.23938E+01
   .59800E+02   .92663E+02  -.23765E+01
   .60000E+02   .92660E+02  -.23634E+01
   .60800E+02   .92645E+02  -.23117E+01
   .61500E+02   .92631E+02  -.22679E+01
   .62300E+02   .92616E+02  -.22194E+01
   .63000E+02   .92603E+02  -.21784E+01
   .64000E+02   .92583E+02  -.21218E+01
   .65000E+02   .92564E+02  -.20676E+01
   .65900E+02   .92546E+02  -.20205E+01
   .66830E+02   .92528E+02  -.19736E+01
   .67400E+02   .92517E+02  -.19457E+01
   .68000E+02   .92505E+02  -.19171E+01
   .69000E+02   .92485E+02  -.18707E+01
   .70000E+02   .92466E+02  -.18262E+01
   .70700E+02   .92452E+02  -.17959E+01
   .71400E+02   .92438E+02  -.17663E+01
   .72863E+02   .92409E+02  -.17071E+01
   .73900E+02   .92388E+02  -.16670E+01
   .74960E+02   .92367E+02  -.16275E+01
   .76000E+02   .92346E+02  -.15902E+01
   .77110E+02   .92324E+02  -.15518E+01
   .78600E+02   .92294E+02  -.15027E+01
   .79300E+02   .92279E+02  -.14804E+01
   .80000E+02   .92265E+02  -.14587E+01
   .81500E+02   .92234E+02  -.14137E+01
   .83000E+02   .92203E+02  -.13708E+01
   .84000E+02   .92182E+02  -.13434E+01
   .85000E+02   .92161E+02  -.13168E+01
   .86500E+02   .92128E+02  -.12785E+01
   .88000E+02   .92096E+02  -.12419E+01
   .89000E+02   .92073E+02  -.12184E+01
   .90000E+02   .92051E+02  -.11957E+01
   .91500E+02   .92016E+02  -.11627E+01
   .93000E+02   .91981E+02  -.11311E+01
   .94000E+02   .91956E+02  -.11108E+01
   .95000E+02   .91931E+02  -.10911E+01
   .96500E+02   .91893E+02  -.10626E+01
   .98000E+02   .91853E+02  -.10352E+01
   .99000E+02   .91825E+02  -.10175E+01
   .99500E+02   .91811E+02  -.10090E+01
   .10000E+03   .91796E+02  -.10004E+01
   .10080E+03   .91772E+02  -.98706E+00
   .10150E+03   .91751E+02  -.97541E+00
   .10230E+03   .91726E+02  -.96261E+00
   .10300E+03   .91703E+02  -.95142E+00
   .10380E+03   .91676E+02  -.93911E+00
   .10450E+03   .91652E+02  -.92834E+00
   .10530E+03   .91623E+02  -.91651E+00
   .10600E+03   .91597E+02  -.90615E+00
   .10680E+03   .91565E+02  -.89475E+00
   .10750E+03   .91537E+02  -.88478E+00
   .10830E+03   .91502E+02  -.87381E+00
   .10900E+03   .91471E+02  -.86421E+00
   .10950E+03   .91447E+02  -.85756E+00
   .11000E+03   .91423E+02  -.85091E+00
   .11050E+03   .91397E+02  -.84443E+00
   .11100E+03   .91370E+02  -.83794E+00
   .11180E+03   .91325E+02  -.82787E+00
   .11220E+03   .91301E+02  -.82283E+00
   .11250E+03   .91283E+02  -.81906E+00
   .11290E+03   .91257E+02  -.81420E+00
   .11330E+03   .91231E+02  -.80934E+00
   .11370E+03   .91203E+02  -.80449E+00
   .11400E+03   .91181E+02  -.80084E+00
   .11440E+03   .91151E+02  -.79615E+00
   .11480E+03   .91119E+02  -.79147E+00
   .11520E+03   .91086E+02  -.78678E+00
   .11550E+03   .91059E+02  -.78326E+00
   .11590E+03   .91022E+02  -.77874E+00
   .11630E+03   .90982E+02  -.77421E+00
   .11670E+03   .90940E+02  -.76968E+00
   .11700E+03   .90906E+02  -.76629E+00
   .11740E+03   .90858E+02  -.76192E+00
   .11760E+03   .90833E+02  -.75973E+00
   .11780E+03   .90806E+02  -.75754E+00
   .11800E+03   .90778E+02  -.75536E+00
   .11820E+03   .90749E+02  -.75317E+00
   .11835E+03   .90726E+02  -.75153E+00
   .11850E+03   .90702E+02  -.74989E+00
   .11870E+03   .90670E+02  -.74778E+00
   .11890E+03   .90635E+02  -.74567E+00
   .11910E+03   .90598E+02  -.74356E+00
   .11930E+03   .90559E+02  -.74144E+00
   .11950E+03   .90517E+02  -.73933E+00
   .11970E+03   .90472E+02  -.73722E+00
   .11985E+03   .90436E+02  -.73563E+00
   .12000E+03   .90398E+02  -.73405E+00
   .12020E+03   .90344E+02  -.73199E+00
   .12040E+03   .90285E+02  -.72992E+00
   .12055E+03   .90236E+02  -.72838E+00
   .12070E+03   .90184E+02  -.72683E+00
   .12085E+03   .90127E+02  -.72531E+00
   .12092E+03   .90099E+02  -.72460E+00
   .12100E+03   .90065E+02  -.72379E+00
   .12107E+03   .90034E+02  -.72308E+00
   .12115E+03   .89996E+02  -.72226E+00
   .12122E+03   .89961E+02  -.72155E+00
   .12130E+03   .89919E+02  -.72074E+00
   .12138E+03   .89874E+02  -.71993E+00
   .12145E+03   .89832E+02  -.71923E+00
   .12152E+03   .89787E+02  -.71853E+00
   .12160E+03   .89732E+02  -.71772E+00
   .12167E+03   .89680E+02  -.71702E+00
   .12171E+03   .89648E+02  -.71662E+00
   .12175E+03   .89615E+02  -.71623E+00
   .12179E+03   .89580E+02  -.71583E+00
   .12183E+03   .89543E+02  -.71543E+00
   .12186E+03   .89513E+02  -.71513E+00
   .12190E+03   .89472E+02  -.71473E+00
   .12193E+03   .89440E+02  -.71443E+00
   .12197E+03   .89394E+02  -.71403E+00
   .12201E+03   .89345E+02  -.71363E+00
   .12205E+03   .89292E+02  -.71324E+00
   .12209E+03   .89234E+02  -.71284E+00
   .12213E+03   .89171E+02  -.71244E+00
   .12217E+03   .89102E+02  -.71205E+00
   .12218E+03   .89074E+02  -.71190E+00
   .12220E+03   .89045E+02  -.71175E+00
   .12223E+03   .88982E+02  -.71145E+00
   .12225E+03   .88936E+02  -.71126E+00
   .12227E+03   .88887E+02  -.71106E+00
   .12229E+03   .88847E+02  -.71091E+00
   .12230E+03   .88804E+02  -.71076E+00
   .12231E+03   .88773E+02  -.71066E+00
   .12232E+03   .88740E+02  -.71056E+00
   .12233E+03   .88711E+02  -.71049E+00
   .12233E+03   .88682E+02  -.71042E+00
   .12234E+03   .88663E+02  -.71038E+00
   .12234E+03   .88653E+02  -.71036E+00
   .12234E+03   .88642E+02  -.71034E+00
   .12235E+03   .88628E+02  -.71032E+00
   .12235E+03   .88611E+02  -.71030E+00
   .12235E+03   .88580E+02  -.71028E+00
   .12235E+03   .88575E+02  -.71027E+00
   .12235E+03   .88569E+02  -.77869E+00
   .12235E+03   .88595E+02  -.77868E+00
   .12236E+03   .88597E+02  -.77867E+00
   .12236E+03   .88597E+02  -.77866E+00
   .12236E+03   .88593E+02  -.77864E+00
   .12236E+03   .88587E+02  -.77863E+00
   .12237E+03   .88569E+02  -.77859E+00
   .12238E+03   .88550E+02  -.77856E+00
   .12239E+03   .88518E+02  -.77851E+00
   .12240E+03   .88483E+02  -.77846E+00
   .12241E+03   .88445E+02  -.77842E+00
   .12242E+03   .88404E+02  -.77837E+00
   .12243E+03   .88358E+02  -.77833E+00
   .12244E+03   .88309E+02  -.77828E+00
   .12245E+03   .88255E+02  -.77823E+00
   .12246E+03   .88196E+02  -.77819E+00
   .12247E+03   .88131E+02  -.77814E+00
   .12248E+03   .88058E+02  -.77810E+00
   .12249E+03   .88018E+02  -.77807E+00
   .12249E+03   .87976E+02  -.77805E+00
   .12250E+03   .87931E+02  -.77803E+00
   .12250E+03   .87882E+02  -.77800E+00
   .12250E+03   .87830E+02  -.77798E+00
   .12251E+03   .87773E+02  -.77796E+00
   .12251E+03   .87710E+02  -.77793E+00
   .12252E+03   .87642E+02  -.77791E+00
   .12253E+03   .87565E+02  -.77789E+00
   .12253E+03   .87479E+02  -.77786E+00
   .12253E+03   .87421E+02  -.77785E+00
   .12254E+03   .87380E+02  -.77784E+00
   .12254E+03   .87312E+02  -.77783E+00
   .12254E+03   .87264E+02  -.77782E+00
   .12254E+03   .87154E+02  -.77780E+00
   .12255E+03   .87058E+02  -.77779E+00
   .12255E+03   .87000E+02  -.77778E+00
   .12255E+03   .86946E+02  -.77777E+00
   .12255E+03   .86887E+02  -.77777E+00
   .12255E+03   .86811E+02  -.77776E+00
   .12255E+03   .86741E+02  -.77775E+00
   .12256E+03   .86643E+02  -.77775E+00
   .12256E+03   .86553E+02  -.77774E+00
   .12256E+03   .86419E+02  -.77773E+00
   .12256E+03   .86294E+02  -.77773E+00
   .12256E+03   .86079E+02  -.77772E+00
   .12256E+03   .85694E+02  -.77771E+00
   .12257E+03   .85329E+02  -.77770E+00
   .12257E+03   .85334E+02  -.77770E+00
   .12257E+03   .85593E+02  -.77769E+00
   .12257E+03   .85784E+02  -.77769E+00
   .12257E+03   .86024E+02  -.23234E+01
   .12257E+03   .85747E+02  -.19991E+01
   .12257E+03   .85794E+02  -.28379E+01
   .12257E+03   .85980E+02  -.29901E+01
   .12258E+03   .86239E+02  -.29845E+01
   .12258E+03   .86464E+02  -.29788E+01
   .12258E+03   .86644E+02  -.29676E+01
   .12258E+03   .86775E+02  -.29563E+01
   .12258E+03   .86864E+02  -.29526E+01
   .12258E+03   .86925E+02  -.29453E+01
   .12258E+03   .86967E+02  -.29425E+01
   .12259E+03   .87007E+02  -.29397E+01
   .12259E+03   .87077E+02  -.29342E+01
   .12259E+03   .87138E+02  -.29287E+01
   .12259E+03   .87218E+02  -.29317E+01
   .12260E+03   .87269E+02  -.29337E+01
   .12260E+03   .87338E+02  -.29367E+01
   .12260E+03   .87381E+02  -.29386E+01
   .12260E+03   .87441E+02  -.29429E+01
   .12261E+03   .87479E+02  -.29457E+01
   .12261E+03   .87534E+02  -.29500E+01
   .12261E+03   .87569E+02  -.29529E+01
   .12261E+03   .87636E+02  -.29543E+01
   .12262E+03   .87697E+02  -.29557E+01
   .12262E+03   .87754E+02  -.29542E+01
   .12262E+03   .87793E+02  -.29531E+01
   .12263E+03   .87842E+02  -.29507E+01
   .12263E+03   .87886E+02  -.29483E+01
   .12264E+03   .87927E+02  -.29464E+01
   .12264E+03   .87956E+02  -.29451E+01
   .12265E+03   .88027E+02  -.29436E+01
   .12265E+03   .88084E+02  -.29441E+01
   .12266E+03   .88144E+02  -.29456E+01
   .12267E+03   .88195E+02  -.29469E+01
   .12268E+03   .88248E+02  -.29465E+01
   .12268E+03   .88292E+02  -.29461E+01
   .12269E+03   .88339E+02  -.29457E+01
   .12270E+03   .88377E+02  -.29454E+01
   .12271E+03   .88452E+02  -.29449E+01
   .12273E+03   .88521E+02  -.29444E+01
   .12274E+03   .88563E+02  -.29441E+01
   .12275E+03   .88603E+02  -.29438E+01
   .12276E+03   .88641E+02  -.29435E+01
   .12277E+03   .88677E+02  -.29432E+01
   .12279E+03   .88727E+02  -.29428E+01
   .12280E+03   .88775E+02  -.29423E+01
   .12281E+03   .88805E+02  -.29420E+01
   .12282E+03   .88834E+02  -.29417E+01
   .12283E+03   .88875E+02  -.29413E+01
   .12285E+03   .88914E+02  -.29408E+01
   .12286E+03   .88951E+02  -.29404E+01
   .12288E+03   .88986E+02  -.29400E+01
   .12290E+03   .89030E+02  -.29394E+01
   .12292E+03   .89062E+02  -.29390E+01
   .12293E+03   .89092E+02  -.29386E+01
   .12297E+03   .89167E+02  -.29375E+01
   .12301E+03   .89236E+02  -.29365E+01
   .12305E+03   .89298E+02  -.29354E+01
   .12309E+03   .89356E+02  -.29339E+01
   .12313E+03   .89410E+02  -.29323E+01
   .12317E+03   .89460E+02  -.29308E+01
   .12320E+03   .89496E+02  -.29297E+01
   .12324E+03   .89540E+02  -.29284E+01
   .12328E+03   .89582E+02  -.29272E+01
   .12331E+03   .89612E+02  -.29262E+01
   .12335E+03   .89649E+02  -.29250E+01
   .12342E+03   .89712E+02  -.29228E+01
   .12350E+03   .89778E+02  -.29204E+01
   .12357E+03   .89832E+02  -.29177E+01
   .12365E+03   .89889E+02  -.29147E+01
   .12372E+03   .89936E+02  -.29120E+01
   .12380E+03   .89987E+02  -.29090E+01
   .12388E+03   .90033E+02  -.29060E+01
   .12395E+03   .90072E+02  -.29034E+01
   .12402E+03   .90107E+02  -.29008E+01
   .12410E+03   .90146E+02  -.28978E+01
   .12417E+03   .90179E+02  -.28952E+01
   .12425E+03   .90215E+02  -.28923E+01
   .12433E+03   .90249E+02  -.28893E+01
   .12440E+03   .90278E+02  -.28867E+01
   .12455E+03   .90337E+02  -.28829E+01
   .12470E+03   .90392E+02  -.28790E+01
   .12485E+03   .90445E+02  -.28738E+01
   .12500E+03   .90494E+02  -.28686E+01
   .12510E+03   .90525E+02  -.28643E+01
   .12520E+03   .90555E+02  -.28601E+01
   .12530E+03   .90584E+02  -.28558E+01
   .12540E+03   .90611E+02  -.28516E+01
   .12550E+03   .90637E+02  -.28475E+01
   .12560E+03   .90661E+02  -.28435E+01
   .12580E+03   .90709E+02  -.28355E+01
   .12600E+03   .90753E+02  -.28287E+01
   .12620E+03   .90795E+02  -.28219E+01
   .12635E+03   .90825E+02  -.28174E+01
   .12650E+03   .90854E+02  -.28129E+01
   .12670E+03   .90891E+02  -.28071E+01
   .12690E+03   .90927E+02  -.28014E+01
   .12710E+03   .90962E+02  -.27957E+01
   .12730E+03   .90995E+02  -.27899E+01
   .12750E+03   .91027E+02  -.27838E+01
   .12770E+03   .91059E+02  -.27776E+01
   .12785E+03   .91081E+02  -.27730E+01
   .12800E+03   .91103E+02  -.27684E+01
   .12820E+03   .91132E+02  -.27616E+01
   .12840E+03   .91160E+02  -.27549E+01
   .12860E+03   .91186E+02  -.27481E+01
   .12880E+03   .91212E+02  -.27414E+01
   .12900E+03   .91236E+02  -.27343E+01
   .12920E+03   .91260E+02  -.27273E+01
   .12950E+03   .91294E+02  -.27168E+01
   .12990E+03   .91337E+02  -.27033E+01
   .13030E+03   .91377E+02  -.26898E+01
   .13070E+03   .91414E+02  -.26763E+01
   .13100E+03   .91441E+02  -.26662E+01
   .13140E+03   .91476E+02  -.26540E+01
   .13180E+03   .91509E+02  -.26418E+01
   .13220E+03   .91540E+02  -.26296E+01
   .13250E+03   .91562E+02  -.26205E+01
   .13290E+03   .91592E+02  -.26092E+01
   .13330E+03   .91620E+02  -.25979E+01
   .13370E+03   .91647E+02  -.25865E+01
   .13400E+03   .91667E+02  -.25780E+01
   .13440E+03   .91693E+02  -.25669E+01
   .13480E+03   .91718E+02  -.25558E+01
   .13520E+03   .91742E+02  -.25447E+01
   .13550E+03   .91759E+02  -.25363E+01
   .13590E+03   .91782E+02  -.25252E+01
   .13630E+03   .91804E+02  -.25140E+01
   .13670E+03   .91826E+02  -.25029E+01
   .13700E+03   .91841E+02  -.24945E+01
   .13740E+03   .91861E+02  -.24837E+01
   .13780E+03   .91881E+02  -.24729E+01
   .13850E+03   .91914E+02  -.24540E+01
   .13930E+03   .91949E+02  -.24323E+01
   .14000E+03   .91979E+02  -.24134E+01
   .14040E+03   .91995E+02  -.24027E+01
   .14080E+03   .92011E+02  -.23920E+01
   .14120E+03   .92027E+02  -.23813E+01
   .14150E+03   .92038E+02  -.23733E+01
   .14230E+03   .92067E+02  -.23518E+01
   .14300E+03   .92090E+02  -.23331E+01
   .14360E+03   .92110E+02  -.23181E+01
   .14420E+03   .92129E+02  -.23030E+01
   .14480E+03   .92147E+02  -.22880E+01
   .14540E+03   .92164E+02  -.22730E+01
   .14570E+03   .92173E+02  -.22657E+01
   .14600E+03   .92181E+02  -.22584E+01
   .14670E+03   .92200E+02  -.22415E+01
   .14730E+03   .92216E+02  -.22273E+01
   .14800E+03   .92233E+02  -.22107E+01
   .14850E+03   .92245E+02  -.21991E+01
   .14900E+03   .92257E+02  -.21874E+01
   .14950E+03   .92269E+02  -.21760E+01
   .14980E+03   .92275E+02  -.21692E+01
   .15000E+03   .92280E+02  -.21646E+01
   .15100E+03   .92301E+02  -.21426E+01
   .15200E+03   .92322E+02  -.21207E+01
   .15300E+03   .92341E+02  -.20994E+01
   .15400E+03   .92360E+02  -.20782E+01
   .15500E+03   .92378E+02  -.20576E+01
   .15600E+03   .92395E+02  -.20370E+01
   .15700E+03   .92411E+02  -.20171E+01
   .15800E+03   .92426E+02  -.19972E+01
   .15900E+03   .92441E+02  -.19779E+01
   .16000E+03   .92455E+02  -.19587E+01
   .16100E+03   .92469E+02  -.19400E+01
   .16200E+03   .92482E+02  -.19213E+01
   .16280E+03   .92492E+02  -.19070E+01
   .16350E+03   .92500E+02  -.18944E+01
   .16430E+03   .92509E+02  -.18800E+01
   .16500E+03   .92518E+02  -.18675E+01
   .16600E+03   .92528E+02  -.18502E+01
   .16700E+03   .92539E+02  -.18329E+01
   .16800E+03   .92549E+02  -.18162E+01
   .16900E+03   .92559E+02  -.17995E+01
   .17000E+03   .92568E+02  -.17832E+01
   .17100E+03   .92577E+02  -.17670E+01
   .17200E+03   .92585E+02  -.17512E+01
   .17300E+03   .92593E+02  -.17355E+01
   .17400E+03   .92602E+02  -.17202E+01
   .17500E+03   .92609E+02  -.17049E+01
   .17600E+03   .92616E+02  -.16900E+01
   .17700E+03   .92623E+02  -.16752E+01
   .17780E+03   .92629E+02  -.16637E+01
   .17850E+03   .92634E+02  -.16537E+01
   .18000E+03   .92643E+02  -.16322E+01
   .18150E+03   .92652E+02  -.16115E+01
   .18300E+03   .92661E+02  -.15909E+01
   .18400E+03   .92666E+02  -.15776E+01
   .18500E+03   .92671E+02  -.15643E+01
   .18650E+03   .92678E+02  -.15451E+01
   .18800E+03   .92686E+02  -.15258E+01
   .18900E+03   .92690E+02  -.15135E+01
   .19000E+03   .92694E+02  -.15011E+01
   .19150E+03   .92701E+02  -.14831E+01
   .19300E+03   .92706E+02  -.14651E+01
   .19400E+03   .92710E+02  -.14536E+01
   .19500E+03   .92714E+02  -.14420E+01
   .19800E+03   .92724E+02  -.14083E+01
   .20000E+03   .92729E+02  -.13866E+01
