    E(keV)         f1           f2     
   .10000E+01   .52662E+02  -.37451E+02
   .10030E+01   .52673E+02  -.37364E+02
   .10060E+01   .52658E+02  -.37277E+02
   .10110E+01   .52555E+02  -.37132E+02
   .10140E+01   .52414E+02  -.37045E+02
   .10160E+01   .52261E+02  -.36987E+02
   .10190E+01   .51859E+02  -.36901E+02
   .10217E+01   .50094E+02  -.36822E+02
   .10217E+01   .51029E+02  -.40007E+02
   .10217E+01   .51964E+02  -.36821E+02
   .10222E+01   .50728E+02  -.36808E+02
   .10227E+01   .45730E+02  -.36794E+02
   .10227E+01   .50634E+02  -.53367E+02
   .10227E+01   .55538E+02  -.36793E+02
   .10243E+01   .48923E+02  -.36750E+02
   .10258E+01  -.74296E+01  -.36707E+02
   .10258E+01   .41884E+02  -.20449E+03
   .10258E+01   .91177E+02  -.36705E+02
   .10261E+01   .35095E+02  -.36697E+02
   .10264E+01  -.22447E+03  -.36689E+02
   .10264E+01   .53961E+02  -.97850E+03
   .10265E+01   .33240E+03  -.36688E+02
   .10270E+01   .64375E+02  -.36673E+02
   .10275E+01   .58197E+02  -.36658E+02
   .10280E+01   .55631E+02  -.36645E+02
   .10286E+01   .37031E+02  -.36629E+02
   .10286E+01   .54384E+02  -.95652E+02
   .10286E+01   .71735E+02  -.36627E+02
   .10289E+01   .54477E+02  -.36619E+02
   .10292E+01   .45715E+02  -.36612E+02
   .10292E+01   .43146E+02  -.43089E+02
   .10292E+01   .40898E+02  -.36611E+02
   .10292E+01   .48860E+02  -.36611E+02
   .10292E+01   .55396E+02  -.84461E+02
   .10293E+01   .68821E+02  -.36610E+02
   .10294E+01   .55372E+02  -.36606E+02
   .10295E+01   .48223E+02  -.36602E+02
   .10295E+01   .54299E+02  -.57871E+02
   .10296E+01   .60374E+02  -.36601E+02
   .10297E+01   .54137E+02  -.36598E+02
   .10298E+01   .47546E+02  -.36595E+02
   .10298E+01   .54253E+02  -.60111E+02
   .10298E+01   .60942E+02  -.36594E+02
   .10299E+01   .55047E+02  -.36593E+02
   .10299E+01   .51663E+02  -.36591E+02
   .10299E+01   .54234E+02  -.46711E+02
   .10300E+01   .56812E+02  -.36590E+02
   .10300E+01   .54027E+02  -.36589E+02
   .10300E+01   .51355E+02  -.36588E+02
   .10300E+01   .50659E+02  -.36588E+02
   .10301E+01   .52265E+02  -.38102E+02
   .10301E+01   .53863E+02  -.47428E+02
   .10301E+01   .55438E+02  -.36587E+02
   .10301E+01   .56653E+02  -.36586E+02
   .10301E+01   .54369E+02  -.36586E+02
   .10301E+01   .53416E+02  -.36586E+02
   .10301E+01   .54205E+02  -.42196E+02
   .10302E+01   .55057E+02  -.36584E+02
   .10302E+01   .53275E+02  -.36584E+02
   .10302E+01   .52377E+02  -.36584E+02
   .10302E+01   .53835E+02  -.43877E+02
   .10302E+01   .55271E+02  -.36583E+02
   .10302E+01   .53368E+02  -.36582E+02
   .10302E+01   .52166E+02  -.36582E+02
   .10303E+01   .53499E+02  -.44678E+02
   .10303E+01   .55157E+02  -.36581E+02
   .10303E+01   .53649E+02  -.36580E+02
   .10303E+01   .53033E+02  -.36580E+02
   .10303E+01   .53666E+02  -.41995E+02
   .10304E+01   .53959E+02  -.36579E+02
   .10304E+01   .53022E+02  -.36578E+02
   .10304E+01   .53038E+02  -.41501E+02
   .10304E+01   .52878E+02  -.37111E+02
   .10304E+01   .51789E+02  -.37533E+02
   .10304E+01   .52234E+02  -.38121E+02
   .10304E+01   .52923E+02  -.44082E+02
   .10304E+01   .53665E+02  -.38797E+02
   .10305E+01   .54352E+02  -.38797E+02
   .10305E+01   .54182E+02  -.40525E+02
   .10305E+01   .54355E+02  -.42254E+02
   .10305E+01   .54717E+02  -.39949E+02
   .10305E+01   .54758E+02  -.38796E+02
   .10305E+01   .55098E+02  -.41624E+02
   .10306E+01   .55669E+02  -.38795E+02
   .10306E+01   .54992E+02  -.38795E+02
   .10306E+01   .54704E+02  -.38794E+02
   .10307E+01   .54566E+02  -.38793E+02
   .10307E+01   .54482E+02  -.38793E+02
   .10308E+01   .54365E+02  -.38791E+02
   .10309E+01   .54303E+02  -.38789E+02
   .10310E+01   .54273E+02  -.38788E+02
   .10310E+01   .54247E+02  -.38786E+02
   .10312E+01   .54212E+02  -.38783E+02
   .10314E+01   .54188E+02  -.38780E+02
   .10315E+01   .54170E+02  -.38778E+02
   .10318E+01   .54146E+02  -.38772E+02
   .10321E+01   .54131E+02  -.38766E+02
   .10324E+01   .54122E+02  -.38761E+02
   .10330E+01   .54117E+02  -.38750E+02
   .10337E+01   .54125E+02  -.38737E+02
   .10345E+01   .54145E+02  -.38722E+02
   .10353E+01   .54174E+02  -.38707E+02
   .10360E+01   .54205E+02  -.38694E+02
   .10375E+01   .54280E+02  -.38664E+02
   .10390E+01   .54366E+02  -.38634E+02
   .10400E+01   .54425E+02  -.38614E+02
   .10410E+01   .54485E+02  -.38594E+02
   .10450E+01   .54742E+02  -.38483E+02
   .10480E+01   .54936E+02  -.38400E+02
   .10520E+01   .55175E+02  -.38290E+02
   .10550E+01   .55348E+02  -.38207E+02
   .10590E+01   .55561E+02  -.38096E+02
   .10630E+01   .55761E+02  -.37985E+02
   .10700E+01   .56101E+02  -.37792E+02
   .10750E+01   .56332E+02  -.37653E+02
   .10800E+01   .56555E+02  -.37515E+02
   .10900E+01   .56991E+02  -.37238E+02
   .11050E+01   .57603E+02  -.36835E+02
   .11200E+01   .58169E+02  -.36432E+02
   .11320E+01   .58596E+02  -.36110E+02
   .11434E+01   .58981E+02  -.35803E+02
   .11570E+01   .59425E+02  -.35444E+02
   .11700E+01   .59818E+02  -.35101E+02
   .11850E+01   .60245E+02  -.34705E+02
   .12000E+01   .60637E+02  -.34309E+02
   .12150E+01   .60999E+02  -.33932E+02
   .12300E+01   .61315E+02  -.33554E+02
   .12420E+01   .61517E+02  -.33251E+02
   .12540E+01   .61550E+02  -.32949E+02
   .12551E+01   .61505E+02  -.32923E+02
   .12562E+01   .60183E+02  -.32895E+02
   .12563E+01   .61484E+02  -.37595E+02
   .12563E+01   .62785E+02  -.32894E+02
   .12583E+01   .61235E+02  -.32845E+02
   .12603E+01   .25747E+02  -.32796E+02
   .12604E+01   .61706E+02  -.16212E+03
   .12604E+01   .97665E+02  -.32795E+02
   .12617E+01   .62392E+02  -.32762E+02
   .12631E+01   .57956E+02  -.32730E+02
   .12631E+01   .61910E+02  -.46961E+02
   .12632E+01   .65863E+02  -.32729E+02
   .12634E+01   .62133E+02  -.32722E+02
   .12637E+01   .60533E+02  -.32715E+02
   .12637E+01   .61894E+02  -.37715E+02
   .12638E+01   .63253E+02  -.32714E+02
   .12639E+01   .61911E+02  -.32711E+02
   .12641E+01   .60486E+02  -.32707E+02
   .12641E+01   .61872E+02  -.37838E+02
   .12641E+01   .63257E+02  -.32706E+02
   .12642E+01   .61997E+02  -.32704E+02
   .12643E+01   .61156E+02  -.32701E+02
   .12643E+01   .61659E+02  -.34923E+02
   .12644E+01   .62093E+02  -.32700E+02
   .12644E+01   .61695E+02  -.32833E+02
   .12644E+01   .61499E+02  -.32967E+02
   .12644E+01   .61368E+02  -.33101E+02
   .12644E+01   .61134E+02  -.33101E+02
   .12645E+01   .61506E+02  -.33101E+02
   .12645E+01   .61796E+02  -.35542E+02
   .12645E+01   .62437E+02  -.33100E+02
   .12645E+01   .62043E+02  -.33099E+02
   .12646E+01   .61674E+02  -.33098E+02
   .12646E+01   .61897E+02  -.34275E+02
   .12646E+01   .62085E+02  -.33097E+02
   .12646E+01   .61931E+02  -.33096E+02
   .12646E+01   .61771E+02  -.33096E+02
   .12647E+01   .62010E+02  -.34449E+02
   .12647E+01   .62255E+02  -.33095E+02
   .12647E+01   .61969E+02  -.33094E+02
   .12648E+01   .61774E+02  -.33094E+02
   .12648E+01   .62069E+02  -.34618E+02
   .12648E+01   .62433E+02  -.33093E+02
   .12648E+01   .62265E+02  -.33092E+02
   .12648E+01   .61973E+02  -.33092E+02
   .12649E+01   .62169E+02  -.34081E+02
   .12649E+01   .62288E+02  -.33091E+02
   .12649E+01   .62155E+02  -.33090E+02
   .12649E+01   .62235E+02  -.33984E+02
   .12649E+01   .62313E+02  -.33089E+02
   .12650E+01   .62242E+02  -.33089E+02
   .12650E+01   .62323E+02  -.33992E+02
   .12650E+01   .62430E+02  -.33088E+02
   .12650E+01   .62526E+02  -.33088E+02
   .12650E+01   .62484E+02  -.33547E+02
   .12651E+01   .62519E+02  -.33087E+02
   .12660E+01   .62145E+02  -.33065E+02
   .12670E+01   .62141E+02  -.33042E+02
   .12680E+01   .62157E+02  -.33019E+02
   .12690E+01   .62177E+02  -.32996E+02
   .12710E+01   .62225E+02  -.32950E+02
   .12730E+01   .62275E+02  -.32904E+02
   .12760E+01   .62351E+02  -.32836E+02
   .12800E+01   .62452E+02  -.32744E+02
   .12900E+01   .62694E+02  -.32515E+02
   .13000E+01   .62928E+02  -.32285E+02
   .13100E+01   .63149E+02  -.32056E+02
   .13200E+01   .63355E+02  -.31828E+02
   .13310E+01   .63568E+02  -.31576E+02
   .13414E+01   .63760E+02  -.31337E+02
   .13600E+01   .64072E+02  -.30930E+02
   .13700E+01   .64223E+02  -.30711E+02
   .13800E+01   .64363E+02  -.30493E+02
   .13900E+01   .64482E+02  -.30280E+02
   .14000E+01   .64566E+02  -.30067E+02
   .14050E+01   .64584E+02  -.29961E+02
   .14090E+01   .64575E+02  -.29876E+02
   .14110E+01   .64554E+02  -.29833E+02
   .14130E+01   .64515E+02  -.29791E+02
   .14150E+01   .64438E+02  -.29748E+02
   .14178E+01   .63794E+02  -.29689E+02
   .14178E+01   .64073E+02  -.30615E+02
   .14179E+01   .64352E+02  -.29688E+02
   .14181E+01   .63972E+02  -.29682E+02
   .14184E+01   .63543E+02  -.29676E+02
   .14184E+01   .63806E+02  -.30593E+02
   .14185E+01   .64069E+02  -.29675E+02
   .14189E+01   .63152E+02  -.29666E+02
   .14194E+01   .45534E+02  -.29656E+02
   .14194E+01   .64118E+02  -.89318E+02
   .14194E+01   .82700E+02  -.29655E+02
   .14196E+01   .66264E+02  -.29651E+02
   .14198E+01   .61621E+02  -.29646E+02
   .14199E+01   .65467E+02  -.42259E+02
   .14199E+01   .69323E+02  -.29645E+02
   .14205E+01   .64730E+02  -.29633E+02
   .14211E+01   .59644E+02  -.29620E+02
   .14211E+01   .64218E+02  -.44601E+02
   .14212E+01   .68830E+02  -.29619E+02
   .14212E+01   .65915E+02  -.29618E+02
   .14213E+01   .64438E+02  -.29617E+02
   .14213E+01   .65376E+02  -.33595E+02
   .14213E+01   .66409E+02  -.29616E+02
   .14214E+01   .65022E+02  -.29614E+02
   .14215E+01   .64573E+02  -.29612E+02
   .14216E+01   .64100E+02  -.29610E+02
   .14217E+01   .62255E+02  -.29608E+02
   .14217E+01   .63989E+02  -.35785E+02
   .14218E+01   .65477E+02  -.29607E+02
   .14218E+01   .64887E+02  -.31487E+02
   .14218E+01   .64972E+02  -.29942E+02
   .14219E+01   .64691E+02  -.30125E+02
   .14219E+01   .64565E+02  -.30212E+02
   .14219E+01   .64517E+02  -.30212E+02
   .14219E+01   .64381E+02  -.30211E+02
   .14219E+01   .64282E+02  -.30211E+02
   .14220E+01   .64142E+02  -.30210E+02
   .14220E+01   .63484E+02  -.30209E+02
   .14220E+01   .64345E+02  -.34307E+02
   .14221E+01   .65612E+02  -.30208E+02
   .14221E+01   .64820E+02  -.30207E+02
   .14222E+01   .64205E+02  -.30206E+02
   .14222E+01   .64641E+02  -.32598E+02
   .14222E+01   .65266E+02  -.30205E+02
   .14222E+01   .64943E+02  -.30204E+02
   .14223E+01   .64726E+02  -.30204E+02
   .14223E+01   .64896E+02  -.31722E+02
   .14223E+01   .65177E+02  -.30202E+02
   .14223E+01   .65008E+02  -.30202E+02
   .14223E+01   .64663E+02  -.30202E+02
   .14224E+01   .65043E+02  -.31949E+02
   .14224E+01   .65249E+02  -.30201E+02
   .14224E+01   .65008E+02  -.30200E+02
   .14224E+01   .65207E+02  -.31624E+02
   .14225E+01   .65496E+02  -.30199E+02
   .14225E+01   .65359E+02  -.30713E+02
   .14225E+01   .65407E+02  -.30198E+02
   .14232E+01   .64922E+02  -.30183E+02
   .14238E+01   .64896E+02  -.30170E+02
   .14244E+01   .64898E+02  -.30156E+02
   .14250E+01   .64909E+02  -.30143E+02
   .14260E+01   .64934E+02  -.30121E+02
   .14270E+01   .64962E+02  -.30099E+02
   .14290E+01   .65020E+02  -.30055E+02
   .14310E+01   .65076E+02  -.30011E+02
   .14360E+01   .65207E+02  -.29900E+02
   .14400E+01   .65302E+02  -.29812E+02
   .14450E+01   .65412E+02  -.29705E+02
   .14500E+01   .65514E+02  -.29597E+02
   .14600E+01   .65699E+02  -.29383E+02
   .14700E+01   .65868E+02  -.29182E+02
   .14800E+01   .66029E+02  -.28981E+02
   .14900E+01   .66183E+02  -.28790E+02
   .15000E+01   .66334E+02  -.28598E+02
   .15150E+01   .66550E+02  -.28312E+02
   .15300E+01   .66751E+02  -.28025E+02
   .15500E+01   .67002E+02  -.27660E+02
   .15700E+01   .67239E+02  -.27295E+02
   .15900E+01   .67461E+02  -.26943E+02
   .16100E+01   .67669E+02  -.26591E+02
   .16300E+01   .67865E+02  -.26256E+02
   .16500E+01   .68053E+02  -.25922E+02
   .16900E+01   .68395E+02  -.25271E+02
   .17300E+01   .68702E+02  -.24651E+02
   .17700E+01   .68974E+02  -.24044E+02
   .18000E+01   .69156E+02  -.23607E+02
   .18200E+01   .69268E+02  -.23324E+02
   .18500E+01   .69421E+02  -.22901E+02
   .18700E+01   .69515E+02  -.22631E+02
   .19000E+01   .69642E+02  -.22226E+02
   .19500E+01   .69822E+02  -.21584E+02
   .20000E+01   .69968E+02  -.20973E+02
   .20500E+01   .70081E+02  -.20385E+02
   .21000E+01   .70162E+02  -.19828E+02
   .21500E+01   .70219E+02  -.19299E+02
   .22000E+01   .70251E+02  -.18785E+02
   .22400E+01   .70249E+02  -.18391E+02
   .22700E+01   .70248E+02  -.18106E+02
   .23000E+01   .70234E+02  -.17829E+02
   .23400E+01   .70202E+02  -.17465E+02
   .23700E+01   .70166E+02  -.17200E+02
   .24100E+01   .70107E+02  -.16859E+02
   .24500E+01   .70031E+02  -.16527E+02
   .24840E+01   .69954E+02  -.16254E+02
   .25000E+01   .69915E+02  -.16128E+02
   .25200E+01   .69863E+02  -.15972E+02
   .25500E+01   .69775E+02  -.15743E+02
   .25900E+01   .69644E+02  -.15450E+02
   .26210E+01   .69531E+02  -.15223E+02
   .26220E+01   .69527E+02  -.15216E+02
   .26230E+01   .69523E+02  -.15209E+02
   .26700E+01   .69333E+02  -.14880E+02
   .27100E+01   .69150E+02  -.14609E+02
   .27500E+01   .68948E+02  -.14346E+02
   .28000E+01   .68667E+02  -.14030E+02
   .28500E+01   .68350E+02  -.13723E+02
   .29000E+01   .67994E+02  -.13427E+02
   .29500E+01   .67592E+02  -.13141E+02
   .29800E+01   .67327E+02  -.12976E+02
   .30000E+01   .67139E+02  -.12866E+02
   .30300E+01   .66838E+02  -.12707E+02
   .30700E+01   .66397E+02  -.12494E+02
   .31100E+01   .65906E+02  -.12293E+02
   .31500E+01   .65354E+02  -.12091E+02
   .31650E+01   .65129E+02  -.12019E+02
   .31800E+01   .64893E+02  -.11947E+02
   .32000E+01   .64558E+02  -.11850E+02
   .32200E+01   .64198E+02  -.11754E+02
   .32400E+01   .63812E+02  -.11663E+02
   .32600E+01   .63395E+02  -.11571E+02
   .32800E+01   .62941E+02  -.11480E+02
   .33000E+01   .62445E+02  -.11389E+02
   .33150E+01   .62041E+02  -.11323E+02
   .33300E+01   .61605E+02  -.11257E+02
   .33450E+01   .61131E+02  -.11191E+02
   .33600E+01   .60614E+02  -.11125E+02
   .33750E+01   .60044E+02  -.11061E+02
   .33900E+01   .59412E+02  -.10998E+02
   .34050E+01   .58704E+02  -.10935E+02
   .34200E+01   .57897E+02  -.10872E+02
   .34280E+01   .57417E+02  -.10839E+02
   .34350E+01   .56963E+02  -.10811E+02
   .34420E+01   .56472E+02  -.10782E+02
   .34500E+01   .55857E+02  -.10750E+02
   .34570E+01   .55262E+02  -.10721E+02
   .34650E+01   .54503E+02  -.10688E+02
   .34730E+01   .53638E+02  -.10656E+02
   .34800E+01   .52769E+02  -.10627E+02
   .34880E+01   .51606E+02  -.10596E+02
   .34950E+01   .50384E+02  -.10569E+02
   .34990E+01   .49572E+02  -.10553E+02
   .35030E+01   .48649E+02  -.10537E+02
   .35070E+01   .47589E+02  -.10522E+02
   .35100E+01   .46677E+02  -.10510E+02
   .35150E+01   .44860E+02  -.10490E+02
   .35180E+01   .43528E+02  -.10479E+02
   .35200E+01   .42503E+02  -.10471E+02
   .35230E+01   .40695E+02  -.10459E+02
   .35250E+01   .39254E+02  -.10451E+02
   .35280E+01   .36593E+02  -.10440E+02
   .35300E+01   .34350E+02  -.10432E+02
   .35320E+01   .31557E+02  -.10424E+02
   .35340E+01   .27956E+02  -.10416E+02
   .35360E+01   .23097E+02  -.10408E+02
   .35380E+01   .16104E+02  -.10401E+02
   .35400E+01   .50401E+01  -.10393E+02
   .35420E+01  -.15513E+02  -.10385E+02
   .35440E+01  -.68709E+02  -.10377E+02
   .35455E+01  -.41004E+03  -.10371E+02
   .35456E+01  -.23333E+03  -.64082E+03
   .35457E+01  -.59450E+02  -.10370E+02
   .35461E+01  -.48019E+03  -.10369E+02
   .35463E+01  -.96493E+03  -.10368E+02
   .35465E+01  -.37101E+04  -.10367E+02
   .35465E+01  -.20932E+04  -.52317E+04
   .35466E+01   .62645E+02  -.12193E+05
   .35466E+01   .38355E+04  -.10367E+02
   .35475E+01   .35515E+03  -.10363E+02
   .35484E+01   .20231E+03  -.10360E+02
   .35493E+01   .15289E+03  -.10357E+02
   .35502E+01   .12546E+03  -.10353E+02
   .35503E+01   .12409E+03  -.10856E+02
   .35504E+01   .12278E+03  -.10352E+02
   .35510E+01   .11117E+03  -.10350E+02
   .35517E+01   .99764E+02  -.10348E+02
   .35517E+01   .10188E+03  -.19862E+02
   .35518E+01   .10402E+03  -.10347E+02
   .35524E+01   .94779E+02  -.10345E+02
   .35531E+01   .88252E+02  -.10342E+02
   .35531E+01   .88601E+02  -.13370E+02
   .35532E+01   .88947E+02  -.10342E+02
   .35534E+01   .86901E+02  -.10341E+02
   .35535E+01   .84859E+02  -.10340E+02
   .35536E+01   .85313E+02  -.13958E+02
   .35537E+01   .85791E+02  -.10340E+02
   .35538E+01   .84575E+02  -.10340E+02
   .35538E+01   .83589E+02  -.10339E+02
   .35539E+01   .83601E+02  -.12866E+02
   .35540E+01   .83598E+02  -.10339E+02
   .35540E+01   .82968E+02  -.10339E+02
   .35540E+01   .82527E+02  -.10339E+02
   .35541E+01   .82565E+02  -.13158E+02
   .35542E+01   .82583E+02  -.10338E+02
   .35542E+01   .82329E+02  -.10338E+02
   .35542E+01   .81910E+02  -.10338E+02
   .35543E+01   .81874E+02  -.12830E+02
   .35543E+01   .81881E+02  -.10338E+02
   .35543E+01   .82003E+02  -.10337E+02
   .35543E+01   .82088E+02  -.10337E+02
   .35544E+01   .81742E+02  -.10735E+02
   .35544E+01   .81046E+02  -.10337E+02
   .35545E+01   .80283E+02  -.10337E+02
   .35546E+01   .79545E+02  -.10336E+02
   .35547E+01   .78754E+02  -.10336E+02
   .35547E+01   .78350E+02  -.10336E+02
   .35548E+01   .77927E+02  -.10336E+02
   .35549E+01   .77410E+02  -.10335E+02
   .35549E+01   .76834E+02  -.10335E+02
   .35549E+01   .76300E+02  -.10774E+02
   .35550E+01   .75979E+02  -.11230E+02
   .35550E+01   .75881E+02  -.11707E+02
   .35551E+01   .75845E+02  -.11752E+02
   .35552E+01   .75765E+02  -.11797E+02
   .35552E+01   .75596E+02  -.11841E+02
   .35552E+01   .75411E+02  -.11886E+02
   .35553E+01   .75216E+02  -.11931E+02
   .35554E+01   .74814E+02  -.12021E+02
   .35555E+01   .74394E+02  -.12114E+02
   .35556E+01   .73977E+02  -.12207E+02
   .35558E+01   .73159E+02  -.12402E+02
   .35560E+01   .72362E+02  -.12599E+02
   .35563E+01   .71219E+02  -.12910E+02
   .35565E+01   .70491E+02  -.13122E+02
   .35567E+01   .69797E+02  -.13341E+02
   .35570E+01   .68799E+02  -.13676E+02
   .35575E+01   .67276E+02  -.14255E+02
   .35580E+01   .65910E+02  -.14855E+02
   .35584E+01   .64923E+02  -.15344E+02
   .35588E+01   .64026E+02  -.15839E+02
   .35591E+01   .63410E+02  -.16214E+02
   .35595E+01   .62658E+02  -.16713E+02
   .35599E+01   .61980E+02  -.17205E+02
   .35603E+01   .61376E+02  -.17697E+02
   .35606E+01   .60971E+02  -.18059E+02
   .35610E+01   .60477E+02  -.18529E+02
   .35614E+01   .60056E+02  -.18985E+02
   .35618E+01   .59665E+02  -.19429E+02
   .35622E+01   .59347E+02  -.19848E+02
   .35625E+01   .59125E+02  -.20153E+02
   .35629E+01   .58880E+02  -.20539E+02
   .35633E+01   .58657E+02  -.20900E+02
   .35637E+01   .58481E+02  -.21242E+02
   .35640E+01   .58361E+02  -.21481E+02
   .35644E+01   .58234E+02  -.21782E+02
   .35648E+01   .58123E+02  -.22060E+02
   .35652E+01   .58037E+02  -.22316E+02
   .35655E+01   .57981E+02  -.22495E+02
   .35659E+01   .57919E+02  -.22715E+02
   .35663E+01   .57869E+02  -.22914E+02
   .35667E+01   .57832E+02  -.23096E+02
   .35670E+01   .57812E+02  -.23221E+02
   .35675E+01   .57778E+02  -.23409E+02
   .35680E+01   .57759E+02  -.23574E+02
   .35685E+01   .57736E+02  -.23714E+02
   .35690E+01   .57727E+02  -.23843E+02
   .35695E+01   .57709E+02  -.23955E+02
   .35700E+01   .57703E+02  -.24046E+02
   .35710E+01   .57682E+02  -.24206E+02
   .35718E+01   .57662E+02  -.24306E+02
   .35725E+01   .57644E+02  -.24379E+02
   .35733E+01   .57612E+02  -.24449E+02
   .35740E+01   .57601E+02  -.24502E+02
   .35755E+01   .57547E+02  -.24594E+02
   .35770E+01   .57493E+02  -.24675E+02
   .35785E+01   .57441E+02  -.24746E+02
   .35800E+01   .57397E+02  -.24818E+02
   .35815E+01   .57364E+02  -.24883E+02
   .35830E+01   .57342E+02  -.24949E+02
   .35850E+01   .57334E+02  -.25028E+02
   .35880E+01   .57355E+02  -.25124E+02
   .35900E+01   .57394E+02  -.25169E+02
   .35930E+01   .57465E+02  -.25204E+02
   .35950E+01   .57520E+02  -.25207E+02
   .35980E+01   .57598E+02  -.25185E+02
   .36000E+01   .57648E+02  -.25154E+02
   .36030E+01   .57704E+02  -.25090E+02
   .36050E+01   .57731E+02  -.25042E+02
   .36080E+01   .57755E+02  -.24966E+02
   .36100E+01   .57761E+02  -.24916E+02
   .36130E+01   .57759E+02  -.24846E+02
   .36150E+01   .57749E+02  -.24799E+02
   .36200E+01   .57706E+02  -.24701E+02
   .36260E+01   .57637E+02  -.24614E+02
   .36310E+01   .57564E+02  -.24549E+02
   .36360E+01   .57483E+02  -.24483E+02
   .36410E+01   .57379E+02  -.24417E+02
   .36460E+01   .57250E+02  -.24346E+02
   .36510E+01   .57093E+02  -.24274E+02
   .36560E+01   .56896E+02  -.24201E+02
   .36600E+01   .56704E+02  -.24144E+02
   .36650E+01   .56417E+02  -.24073E+02
   .36700E+01   .56069E+02  -.24003E+02
   .36750E+01   .55648E+02  -.23941E+02
   .36800E+01   .55137E+02  -.23879E+02
   .36850E+01   .54508E+02  -.23826E+02
   .36900E+01   .53724E+02  -.23773E+02
   .36950E+01   .52717E+02  -.23720E+02
   .36970E+01   .52229E+02  -.23699E+02
   .37000E+01   .51375E+02  -.23668E+02
   .37040E+01   .49928E+02  -.23625E+02
   .37070E+01   .48503E+02  -.23593E+02
   .37110E+01   .45875E+02  -.23550E+02
   .37140E+01   .42966E+02  -.23518E+02
   .37180E+01   .36468E+02  -.23475E+02
   .37210E+01   .26765E+02  -.23443E+02
   .37225E+01   .17863E+02  -.23427E+02
   .37240E+01   .19418E+01  -.23411E+02
   .37260E+01  -.61675E+02  -.23389E+02
   .37276E+01  -.24961E+04  -.23372E+02
   .37277E+01  -.13746E+04  -.42680E+04
   .37277E+01   .55996E+02  -.85127E+04
   .37278E+01   .26081E+04  -.23370E+02
   .37292E+01   .19454E+03  -.23355E+02
   .37306E+01   .12715E+03  -.23340E+02
   .37313E+01   .11220E+03  -.23332E+02
   .37320E+01   .10253E+03  -.23325E+02
   .37327E+01   .95327E+02  -.23317E+02
   .37333E+01   .87088E+02  -.23310E+02
   .37334E+01   .90203E+02  -.35495E+02
   .37335E+01   .93330E+02  -.23309E+02
   .37336E+01   .89933E+02  -.23307E+02
   .37338E+01   .88341E+02  -.23305E+02
   .37339E+01   .87969E+02  -.24105E+02
   .37340E+01   .87647E+02  -.23304E+02
   .37345E+01   .84032E+02  -.23298E+02
   .37351E+01   .80312E+02  -.23291E+02
   .37352E+01   .80930E+02  -.26616E+02
   .37353E+01   .81559E+02  -.23290E+02
   .37355E+01   .79848E+02  -.23288E+02
   .37357E+01   .78204E+02  -.23285E+02
   .37357E+01   .78592E+02  -.25866E+02
   .37358E+01   .78936E+02  -.23284E+02
   .37359E+01   .78234E+02  -.23283E+02
   .37360E+01   .77511E+02  -.23282E+02
   .37360E+01   .77559E+02  -.24959E+02
   .37361E+01   .77571E+02  -.23281E+02
   .37361E+01   .77285E+02  -.23280E+02
   .37362E+01   .76874E+02  -.23280E+02
   .37362E+01   .76905E+02  -.25058E+02
   .37363E+01   .76882E+02  -.23278E+02
   .37363E+01   .76738E+02  -.23278E+02
   .37363E+01   .76485E+02  -.23278E+02
   .37364E+01   .76430E+02  -.23974E+02
   .37364E+01   .76406E+02  -.24901E+02
   .37364E+01   .76395E+02  -.24089E+02
   .37365E+01   .76313E+02  -.23277E+02
   .37366E+01   .75545E+02  -.23496E+02
   .37366E+01   .75236E+02  -.23719E+02
   .37366E+01   .75107E+02  -.23944E+02
   .37367E+01   .75026E+02  -.24170E+02
   .37367E+01   .74975E+02  -.24193E+02
   .37368E+01   .74939E+02  -.24215E+02
   .37368E+01   .74844E+02  -.24236E+02
   .37369E+01   .74715E+02  -.24263E+02
   .37369E+01   .74581E+02  -.24290E+02
   .37370E+01   .74308E+02  -.24344E+02
   .37372E+01   .73759E+02  -.24453E+02
   .37374E+01   .73216E+02  -.24570E+02
   .37376E+01   .72697E+02  -.24687E+02
   .37380E+01   .71709E+02  -.24938E+02
   .37385E+01   .70581E+02  -.25277E+02
   .37390E+01   .69562E+02  -.25637E+02
   .37395E+01   .68648E+02  -.26020E+02
   .37400E+01   .67830E+02  -.26409E+02
   .37404E+01   .67238E+02  -.26732E+02
   .37408E+01   .66702E+02  -.27055E+02
   .37415E+01   .65889E+02  -.27626E+02
   .37423E+01   .65133E+02  -.28268E+02
   .37430E+01   .64616E+02  -.28807E+02
   .37435E+01   .64313E+02  -.29173E+02
   .37440E+01   .64063E+02  -.29519E+02
   .37445E+01   .63859E+02  -.29844E+02
   .37450E+01   .63693E+02  -.30146E+02
   .37455E+01   .63567E+02  -.30424E+02
   .37460E+01   .63460E+02  -.30679E+02
   .37465E+01   .63385E+02  -.30910E+02
   .37470E+01   .63326E+02  -.31117E+02
   .37474E+01   .63292E+02  -.31268E+02
   .37478E+01   .63266E+02  -.31405E+02
   .37485E+01   .63241E+02  -.31615E+02
   .37492E+01   .63228E+02  -.31791E+02
   .37500E+01   .63225E+02  -.31956E+02
   .37507E+01   .63222E+02  -.32074E+02
   .37515E+01   .63238E+02  -.32184E+02
   .37523E+01   .63239E+02  -.32272E+02
   .37530E+01   .63256E+02  -.32336E+02
   .37540E+01   .63265E+02  -.32409E+02
   .37550E+01   .63274E+02  -.32467E+02
   .37565E+01   .63278E+02  -.32531E+02
   .37580E+01   .63284E+02  -.32594E+02
   .37590E+01   .63292E+02  -.32627E+02
   .37600E+01   .63302E+02  -.32659E+02
   .37630E+01   .63345E+02  -.32743E+02
   .37650E+01   .63395E+02  -.32798E+02
   .37680E+01   .63494E+02  -.32853E+02
   .37700E+01   .63580E+02  -.32890E+02
   .37740E+01   .63778E+02  -.32912E+02
   .37780E+01   .63990E+02  -.32886E+02
   .37820E+01   .64196E+02  -.32825E+02
   .37850E+01   .64340E+02  -.32764E+02
   .37890E+01   .64515E+02  -.32675E+02
   .37930E+01   .64671E+02  -.32586E+02
   .37970E+01   .64818E+02  -.32506E+02
   .38000E+01   .64922E+02  -.32447E+02
   .38040E+01   .65059E+02  -.32386E+02
   .38080E+01   .65201E+02  -.32325E+02
   .38150E+01   .65448E+02  -.32218E+02
   .38230E+01   .65727E+02  -.32097E+02
   .38300E+01   .65963E+02  -.31992E+02
   .38400E+01   .66289E+02  -.31843E+02
   .38500E+01   .66599E+02  -.31694E+02
   .38600E+01   .66895E+02  -.31547E+02
   .38700E+01   .67169E+02  -.31401E+02
   .38780E+01   .67380E+02  -.31298E+02
   .38850E+01   .67562E+02  -.31208E+02
   .39000E+01   .67939E+02  -.31017E+02
   .39150E+01   .68296E+02  -.30827E+02
   .39300E+01   .68627E+02  -.30638E+02
   .39450E+01   .68939E+02  -.30461E+02
   .39600E+01   .69235E+02  -.30284E+02
   .39800E+01   .69603E+02  -.30048E+02
   .40000E+01   .69942E+02  -.29812E+02
   .40020E+01   .69974E+02  -.29789E+02
   .40040E+01   .70006E+02  -.29766E+02
   .40085E+01   .70076E+02  -.29715E+02
   .40300E+01   .70396E+02  -.29470E+02
   .40500E+01   .70662E+02  -.29243E+02
   .40700E+01   .70900E+02  -.29022E+02
   .40780E+01   .70987E+02  -.28934E+02
   .40860E+01   .71070E+02  -.28845E+02
   .40980E+01   .71183E+02  -.28716E+02
   .41100E+01   .71286E+02  -.28588E+02
   .41200E+01   .71362E+02  -.28481E+02
   .41300E+01   .71428E+02  -.28374E+02
   .41400E+01   .71486E+02  -.28267E+02
   .41500E+01   .71532E+02  -.28160E+02
   .41650E+01   .71578E+02  -.27999E+02
   .41800E+01   .71589E+02  -.27839E+02
   .41900E+01   .71575E+02  -.27737E+02
   .42000E+01   .71537E+02  -.27635E+02
   .42070E+01   .71495E+02  -.27564E+02
   .42150E+01   .71427E+02  -.27482E+02
   .42230E+01   .71332E+02  -.27401E+02
   .42300E+01   .71221E+02  -.27330E+02
   .42380E+01   .71052E+02  -.27248E+02
   .42420E+01   .70945E+02  -.27207E+02
   .42450E+01   .70852E+02  -.27177E+02
   .42490E+01   .70707E+02  -.27136E+02
   .42530E+01   .70533E+02  -.27095E+02
   .42570E+01   .70319E+02  -.27055E+02
   .42600E+01   .70123E+02  -.27024E+02
   .42630E+01   .69886E+02  -.26993E+02
   .42650E+01   .69698E+02  -.26973E+02
   .42680E+01   .69351E+02  -.26943E+02
   .42700E+01   .69061E+02  -.26922E+02
   .42730E+01   .68484E+02  -.26892E+02
   .42750E+01   .67945E+02  -.26871E+02
   .42765E+01   .67398E+02  -.26856E+02
   .42780E+01   .66635E+02  -.26841E+02
   .42792E+01   .65711E+02  -.26829E+02
   .42804E+01   .62534E+02  -.26816E+02
   .42805E+01   .64158E+02  -.32686E+02
   .42806E+01   .65762E+02  -.26815E+02
   .42810E+01   .62920E+02  -.26810E+02
   .42814E+01   .53440E+02  -.26806E+02
   .42815E+01   .63924E+02  -.61557E+02
   .42816E+01   .74403E+02  -.26805E+02
   .42823E+01   .63347E+02  -.26798E+02
   .42831E+01   .60034E+02  -.26790E+02
   .42838E+01   .54047E+02  -.26783E+02
   .42845E+01   .17771E+02  -.26776E+02
   .42846E+01   .41015E+02  -.11411E+03
   .42847E+01   .63076E+02  -.26774E+02
   .42849E+01   .21139E+02  -.26772E+02
   .42851E+01  -.11651E+03  -.26770E+02
   .42852E+01   .71986E+02  -.64380E+03
   .42853E+01   .26065E+03  -.26768E+02
   .42858E+01   .99565E+02  -.26763E+02
   .42863E+01   .84488E+02  -.26758E+02
   .42866E+01   .80357E+02  -.26755E+02
   .42868E+01   .78267E+02  -.26753E+02
   .42870E+01   .76363E+02  -.26751E+02
   .42873E+01   .71930E+02  -.26748E+02
   .42874E+01   .74218E+02  -.36419E+02
   .42875E+01   .76463E+02  -.26747E+02
   .42877E+01   .71880E+02  -.26744E+02
   .42879E+01   .62308E+02  -.26742E+02
   .42880E+01   .73073E+02  -.61485E+02
   .42881E+01   .82636E+02  -.26740E+02
   .42882E+01   .77658E+02  -.26740E+02
   .42882E+01   .74987E+02  -.26739E+02
   .42883E+01   .73846E+02  -.30235E+02
   .42884E+01   .72881E+02  -.26737E+02
   .42885E+01   .70965E+02  -.26737E+02
   .42885E+01   .68700E+02  -.26736E+02
   .42886E+01   .72535E+02  -.43417E+02
   .42887E+01   .76568E+02  -.26735E+02
   .42887E+01   .74099E+02  -.26734E+02
   .42888E+01   .71983E+02  -.26734E+02
   .42888E+01   .72771E+02  -.35551E+02
   .42889E+01   .73089E+02  -.26732E+02
   .42889E+01   .72436E+02  -.26732E+02
   .42890E+01   .71444E+02  -.26732E+02
   .42891E+01   .72817E+02  -.37576E+02
   .42891E+01   .74312E+02  -.26730E+02
   .42892E+01   .73618E+02  -.26730E+02
   .42892E+01   .73219E+02  -.26730E+02
   .42892E+01   .73166E+02  -.33396E+02
   .42893E+01   .73089E+02  -.26729E+02
   .42893E+01   .73148E+02  -.27009E+02
   .42894E+01   .70790E+02  -.28846E+02
   .42895E+01   .70702E+02  -.29729E+02
   .42895E+01   .70867E+02  -.30885E+02
   .42895E+01   .71222E+02  -.30891E+02
   .42896E+01   .71619E+02  -.30892E+02
   .42896E+01   .71724E+02  -.30893E+02
   .42897E+01   .71786E+02  -.30894E+02
   .42897E+01   .71820E+02  -.30895E+02
   .42898E+01   .71838E+02  -.30896E+02
   .42899E+01   .71867E+02  -.30897E+02
   .42899E+01   .71880E+02  -.30899E+02
   .42900E+01   .71885E+02  -.30900E+02
   .42901E+01   .71883E+02  -.30902E+02
   .42902E+01   .71877E+02  -.30903E+02
   .42902E+01   .71869E+02  -.30904E+02
   .42903E+01   .71859E+02  -.30906E+02
   .42905E+01   .71827E+02  -.30910E+02
   .42907E+01   .71794E+02  -.30914E+02
   .42909E+01   .71768E+02  -.30917E+02
   .42910E+01   .71742E+02  -.30920E+02
   .42912E+01   .71710E+02  -.30924E+02
   .42914E+01   .71679E+02  -.30928E+02
   .42917E+01   .71637E+02  -.30934E+02
   .42920E+01   .71600E+02  -.30940E+02
   .42924E+01   .71557E+02  -.30948E+02
   .42928E+01   .71521E+02  -.30957E+02
   .42931E+01   .71497E+02  -.30963E+02
   .42935E+01   .71472E+02  -.30971E+02
   .42943E+01   .71438E+02  -.30990E+02
   .42950E+01   .71423E+02  -.31007E+02
   .42957E+01   .71419E+02  -.31022E+02
   .42965E+01   .71425E+02  -.31040E+02
   .42973E+01   .71444E+02  -.31057E+02
   .42980E+01   .71466E+02  -.31072E+02
   .42990E+01   .71506E+02  -.31085E+02
   .43000E+01   .71554E+02  -.31097E+02
   .43015E+01   .71636E+02  -.31101E+02
   .43030E+01   .71722E+02  -.31104E+02
   .43040E+01   .71781E+02  -.31096E+02
   .43050E+01   .71840E+02  -.31088E+02
   .43065E+01   .71925E+02  -.31065E+02
   .43080E+01   .72005E+02  -.31043E+02
   .43090E+01   .72058E+02  -.31026E+02
   .43100E+01   .72110E+02  -.31009E+02
   .43120E+01   .72204E+02  -.30972E+02
   .43140E+01   .72291E+02  -.30936E+02
   .43160E+01   .72374E+02  -.30900E+02
   .43180E+01   .72451E+02  -.30864E+02
   .43200E+01   .72521E+02  -.30837E+02
   .43220E+01   .72587E+02  -.30810E+02
   .43250E+01   .72689E+02  -.30770E+02
   .43290E+01   .72820E+02  -.30728E+02
   .43320E+01   .72911E+02  -.30695E+02
   .43400E+01   .73162E+02  -.30628E+02
   .43450E+01   .73315E+02  -.30580E+02
   .43500E+01   .73460E+02  -.30531E+02
   .43550E+01   .73599E+02  -.30483E+02
   .43600E+01   .73734E+02  -.30434E+02
   .43680E+01   .73941E+02  -.30355E+02
   .43750E+01   .74112E+02  -.30285E+02
   .43820E+01   .74275E+02  -.30216E+02
   .43900E+01   .74454E+02  -.30136E+02
   .44000E+01   .74669E+02  -.30037E+02
   .44100E+01   .74873E+02  -.29938E+02
   .44250E+01   .75160E+02  -.29789E+02
   .44400E+01   .75428E+02  -.29640E+02
   .44550E+01   .75681E+02  -.29495E+02
   .44700E+01   .75922E+02  -.29351E+02
   .44850E+01   .76150E+02  -.29206E+02
   .45000E+01   .76368E+02  -.29062E+02
   .45150E+01   .76578E+02  -.28923E+02
   .45300E+01   .76780E+02  -.28783E+02
   .45450E+01   .76973E+02  -.28643E+02
   .45600E+01   .77157E+02  -.28503E+02
   .45750E+01   .77335E+02  -.28364E+02
   .45900E+01   .77506E+02  -.28224E+02
   .46200E+01   .77831E+02  -.27945E+02
   .46500E+01   .78132E+02  -.27680E+02
   .46800E+01   .78412E+02  -.27414E+02
   .47100E+01   .78673E+02  -.27149E+02
   .47319E+01   .78853E+02  -.26955E+02
   .47500E+01   .78995E+02  -.26802E+02
   .47700E+01   .79145E+02  -.26634E+02
   .48000E+01   .79358E+02  -.26381E+02
   .48300E+01   .79556E+02  -.26134E+02
   .48700E+01   .79794E+02  -.25805E+02
   .49000E+01   .79955E+02  -.25566E+02
   .49300E+01   .80099E+02  -.25328E+02
   .49450E+01   .80165E+02  -.25212E+02
   .49600E+01   .80227E+02  -.25097E+02
   .49800E+01   .80302E+02  -.24943E+02
   .50000E+01   .80368E+02  -.24789E+02
   .50200E+01   .80423E+02  -.24640E+02
   .50400E+01   .80465E+02  -.24490E+02
   .50500E+01   .80481E+02  -.24416E+02
   .50600E+01   .80492E+02  -.24341E+02
   .50750E+01   .80498E+02  -.24229E+02
   .50900E+01   .80490E+02  -.24117E+02
   .51000E+01   .80474E+02  -.24046E+02
   .51100E+01   .80446E+02  -.23975E+02
   .51200E+01   .80403E+02  -.23904E+02
   .51300E+01   .80339E+02  -.23833E+02
   .51350E+01   .80295E+02  -.23797E+02
   .51400E+01   .80240E+02  -.23761E+02
   .51450E+01   .80170E+02  -.23726E+02
   .51500E+01   .80080E+02  -.23690E+02
   .51530E+01   .80012E+02  -.23669E+02
   .51560E+01   .79930E+02  -.23647E+02
   .51590E+01   .79826E+02  -.23626E+02
   .51620E+01   .79692E+02  -.23605E+02
   .51650E+01   .79509E+02  -.23583E+02
   .51680E+01   .79237E+02  -.23562E+02
   .51695E+01   .79036E+02  -.23551E+02
   .51710E+01   .78752E+02  -.23540E+02
   .51730E+01   .78009E+02  -.23526E+02
   .51744E+01   .70730E+02  -.23516E+02
   .51745E+01   .77983E+02  -.47486E+02
   .51746E+01   .85234E+02  -.23515E+02
   .51756E+01   .77962E+02  -.23508E+02
   .51765E+01   .76433E+02  -.23501E+02
   .51775E+01   .73075E+02  -.23495E+02
   .51785E+01   .12896E+02  -.23488E+02
   .51786E+01   .79536E+02  -.24249E+03
   .51787E+01   .14618E+03  -.23486E+02
   .51793E+01   .89634E+02  -.23482E+02
   .51796E+01   .86500E+02  -.23480E+02
   .51800E+01   .84401E+02  -.23477E+02
   .51803E+01   .83288E+02  -.23475E+02
   .51806E+01   .82490E+02  -.23473E+02
   .51807E+01   .82134E+02  -.23472E+02
   .51809E+01   .81783E+02  -.23471E+02
   .51811E+01   .81263E+02  -.23470E+02
   .51813E+01   .80518E+02  -.23468E+02
   .51813E+01   .80730E+02  -.24539E+02
   .51814E+01   .80938E+02  -.25610E+02
   .51815E+01   .81330E+02  -.23467E+02
   .51816E+01   .80730E+02  -.23466E+02
   .51817E+01   .80154E+02  -.23466E+02
   .51818E+01   .79424E+02  -.23465E+02
   .51819E+01   .77994E+02  -.23464E+02
   .51819E+01   .79122E+02  -.27681E+02
   .51820E+01   .80238E+02  -.31898E+02
   .51820E+01   .81274E+02  -.27680E+02
   .51821E+01   .82268E+02  -.23463E+02
   .51821E+01   .81008E+02  -.23716E+02
   .51822E+01   .80235E+02  -.24057E+02
   .51823E+01   .80080E+02  -.25436E+02
   .51824E+01   .79921E+02  -.24715E+02
   .51824E+01   .79736E+02  -.24716E+02
   .51825E+01   .79510E+02  -.24716E+02
   .51826E+01   .80569E+02  -.28823E+02
   .51827E+01   .81609E+02  -.24721E+02
   .51827E+01   .80984E+02  -.24722E+02
   .51828E+01   .80393E+02  -.24723E+02
   .51829E+01   .81083E+02  -.28083E+02
   .51830E+01   .81719E+02  -.24728E+02
   .51830E+01   .81456E+02  -.24728E+02
   .51830E+01   .81316E+02  -.24729E+02
   .51831E+01   .81529E+02  -.27081E+02
   .51831E+01   .81648E+02  -.24732E+02
   .51832E+01   .81856E+02  -.24732E+02
   .51832E+01   .82140E+02  -.24733E+02
   .51832E+01   .82005E+02  -.25258E+02
   .51834E+01   .81804E+02  -.24736E+02
   .51836E+01   .81352E+02  -.24741E+02
   .51838E+01   .81201E+02  -.24745E+02
   .51840E+01   .81103E+02  -.24749E+02
   .51842E+01   .81030E+02  -.24753E+02
   .51846E+01   .80927E+02  -.24760E+02
   .51850E+01   .80855E+02  -.24768E+02
   .51855E+01   .80789E+02  -.24778E+02
   .51860E+01   .80743E+02  -.24788E+02
   .51865E+01   .80709E+02  -.24797E+02
   .51870E+01   .80681E+02  -.24807E+02
   .51878E+01   .80648E+02  -.24815E+02
   .51885E+01   .80630E+02  -.24822E+02
   .51900E+01   .80614E+02  -.24836E+02
   .51920E+01   .80614E+02  -.24841E+02
   .51940E+01   .80636E+02  -.24847E+02
   .51955E+01   .80656E+02  -.24841E+02
   .51970E+01   .80680E+02  -.24834E+02
   .51990E+01   .80709E+02  -.24819E+02
   .52010E+01   .80740E+02  -.24803E+02
   .52025E+01   .80761E+02  -.24789E+02
   .52040E+01   .80781E+02  -.24775E+02
   .52070E+01   .80819E+02  -.24747E+02
   .52100E+01   .80852E+02  -.24718E+02
   .52130E+01   .80883E+02  -.24697E+02
   .52150E+01   .80905E+02  -.24683E+02
   .52200E+01   .80959E+02  -.24647E+02
   .52250E+01   .81009E+02  -.24614E+02
   .52300E+01   .81059E+02  -.24581E+02
   .52400E+01   .81157E+02  -.24516E+02
   .52500E+01   .81249E+02  -.24451E+02
   .52600E+01   .81333E+02  -.24385E+02
   .52700E+01   .81411E+02  -.24318E+02
   .52800E+01   .81486E+02  -.24253E+02
   .52900E+01   .81557E+02  -.24187E+02
   .53000E+01   .81624E+02  -.24122E+02
   .53100E+01   .81688E+02  -.24056E+02
   .53300E+01   .81804E+02  -.23926E+02
   .53541E+01   .81929E+02  -.23770E+02
   .53670E+01   .81989E+02  -.23688E+02
   .53800E+01   .82046E+02  -.23605E+02
   .54000E+01   .82122E+02  -.23478E+02
   .54147E+01   .82171E+02  -.23385E+02
   .54270E+01   .82205E+02  -.23310E+02
   .54400E+01   .82233E+02  -.23230E+02
   .54550E+01   .82254E+02  -.23137E+02
   .54630E+01   .82259E+02  -.23088E+02
   .54700E+01   .82258E+02  -.23045E+02
   .54770E+01   .82252E+02  -.23002E+02
   .54850E+01   .82235E+02  -.22953E+02
   .54930E+01   .82203E+02  -.22903E+02
   .55000E+01   .82158E+02  -.22860E+02
   .55030E+01   .82130E+02  -.22842E+02
   .55060E+01   .82096E+02  -.22823E+02
   .55090E+01   .82053E+02  -.22805E+02
   .55120E+01   .81997E+02  -.22787E+02
   .55150E+01   .81920E+02  -.22768E+02
   .55165E+01   .81869E+02  -.22759E+02
   .55180E+01   .81807E+02  -.22750E+02
   .55195E+01   .81727E+02  -.22740E+02
   .55210E+01   .81616E+02  -.22731E+02
   .55220E+01   .81514E+02  -.22725E+02
   .55230E+01   .81367E+02  -.22719E+02
   .55239E+01   .81153E+02  -.22713E+02
   .55248E+01   .80332E+02  -.22708E+02
   .55249E+01   .80796E+02  -.24409E+02
   .55250E+01   .81246E+02  -.22706E+02
   .55252E+01   .80686E+02  -.22705E+02
   .55254E+01   .80025E+02  -.22704E+02
   .55255E+01   .80554E+02  -.24815E+02
   .55256E+01   .81065E+02  -.22703E+02
   .55260E+01   .79694E+02  -.22700E+02
   .55264E+01   .74331E+02  -.22698E+02
   .55265E+01   .80650E+02  -.43398E+02
   .55266E+01   .86885E+02  -.22697E+02
   .55267E+01   .83063E+02  -.22696E+02
   .55269E+01   .80274E+02  -.22695E+02
   .55270E+01   .82733E+02  -.32213E+02
   .55271E+01   .85368E+02  -.22694E+02
   .55273E+01   .82877E+02  -.22693E+02
   .55275E+01   .82171E+02  -.22691E+02
   .55276E+01   .81830E+02  -.22691E+02
   .55278E+01   .81498E+02  -.22690E+02
   .55279E+01   .81083E+02  -.22689E+02
   .55280E+01   .80813E+02  -.22689E+02
   .55280E+01   .80449E+02  -.22688E+02
   .55281E+01   .79882E+02  -.22688E+02
   .55282E+01   .78734E+02  -.22687E+02
   .55282E+01   .79393E+02  -.24968E+02
   .55282E+01   .80049E+02  -.27249E+02
   .55283E+01   .81130E+02  -.31051E+02
   .55284E+01   .83363E+02  -.22686E+02
   .55285E+01   .81952E+02  -.22944E+02
   .55286E+01   .81265E+02  -.23337E+02
   .55287E+01   .80953E+02  -.23733E+02
   .55288E+01   .80491E+02  -.23731E+02
   .55288E+01   .81000E+02  -.23730E+02
   .55289E+01   .81549E+02  -.27281E+02
   .55290E+01   .82475E+02  -.23726E+02
   .55290E+01   .81979E+02  -.23725E+02
   .55291E+01   .81504E+02  -.23724E+02
   .55292E+01   .82103E+02  -.26583E+02
   .55293E+01   .82639E+02  -.23719E+02
   .55293E+01   .82525E+02  -.23719E+02
   .55293E+01   .82315E+02  -.23719E+02
   .55294E+01   .82592E+02  -.25724E+02
   .55296E+01   .83070E+02  -.23713E+02
   .55297E+01   .82621E+02  -.23711E+02
   .55299E+01   .82414E+02  -.23707E+02
   .55301E+01   .82321E+02  -.23703E+02
   .55303E+01   .82269E+02  -.23699E+02
   .55306E+01   .82224E+02  -.23693E+02
   .55310E+01   .82195E+02  -.23685E+02
   .55315E+01   .82179E+02  -.23675E+02
   .55320E+01   .82174E+02  -.23665E+02
   .55325E+01   .82175E+02  -.23655E+02
   .55330E+01   .82180E+02  -.23645E+02
   .55340E+01   .82197E+02  -.23632E+02
   .55350E+01   .82216E+02  -.23618E+02
   .55360E+01   .82234E+02  -.23605E+02
   .55370E+01   .82251E+02  -.23592E+02
   .55390E+01   .82288E+02  -.23574E+02
   .55410E+01   .82320E+02  -.23557E+02
   .55430E+01   .82353E+02  -.23545E+02
   .55450E+01   .82383E+02  -.23532E+02
   .55490E+01   .82443E+02  -.23513E+02
   .55530E+01   .82501E+02  -.23493E+02
   .55570E+01   .82556E+02  -.23473E+02
   .55600E+01   .82597E+02  -.23459E+02
   .55680E+01   .82695E+02  -.23411E+02
   .55750E+01   .82772E+02  -.23369E+02
   .55820E+01   .82842E+02  -.23325E+02
   .55900E+01   .82915E+02  -.23276E+02
   .55980E+01   .82983E+02  -.23230E+02
   .56050E+01   .83040E+02  -.23189E+02
   .56200E+01   .83155E+02  -.23102E+02
   .56400E+01   .83297E+02  -.22986E+02
   .56600E+01   .83425E+02  -.22869E+02
   .56750E+01   .83516E+02  -.22784E+02
   .56900E+01   .83603E+02  -.22699E+02
   .57100E+01   .83713E+02  -.22586E+02
   .57300E+01   .83818E+02  -.22473E+02
   .57500E+01   .83919E+02  -.22363E+02
   .57700E+01   .84016E+02  -.22253E+02
   .58000E+01   .84156E+02  -.22089E+02
   .58300E+01   .84288E+02  -.21927E+02
   .58500E+01   .84372E+02  -.21819E+02
   .58800E+01   .84493E+02  -.21657E+02
   .59000E+01   .84570E+02  -.21549E+02
   .59200E+01   .84645E+02  -.21447E+02
   .59500E+01   .84754E+02  -.21293E+02
   .60000E+01   .84927E+02  -.21036E+02
   .60500E+01   .85089E+02  -.20787E+02
   .61000E+01   .85241E+02  -.20539E+02
   .61500E+01   .85385E+02  -.20300E+02
   .62000E+01   .85520E+02  -.20061E+02
   .62500E+01   .85648E+02  -.19831E+02
   .63000E+01   .85769E+02  -.19602E+02
   .63500E+01   .85884E+02  -.19381E+02
   .64038E+01   .86002E+02  -.19143E+02
   .64800E+01   .86160E+02  -.18822E+02
   .65100E+01   .86219E+02  -.18695E+02
   .65500E+01   .86295E+02  -.18526E+02
   .65900E+01   .86368E+02  -.18365E+02
   .66300E+01   .86437E+02  -.18204E+02
   .66600E+01   .86488E+02  -.18083E+02
   .67000E+01   .86553E+02  -.17923E+02
   .67800E+01   .86676E+02  -.17618E+02
   .68500E+01   .86776E+02  -.17351E+02
   .69200E+01   .86870E+02  -.17095E+02
   .69600E+01   .86922E+02  -.16953E+02
   .70000E+01   .86972E+02  -.16810E+02
   .70700E+01   .87056E+02  -.16568E+02
   .71500E+01   .87143E+02  -.16290E+02
   .72200E+01   .87214E+02  -.16059E+02
   .73000E+01   .87289E+02  -.15796E+02
   .73500E+01   .87333E+02  -.15638E+02
   .74000E+01   .87376E+02  -.15480E+02
   .74500E+01   .87416E+02  -.15327E+02
   .75000E+01   .87456E+02  -.15175E+02
   .75700E+01   .87508E+02  -.14966E+02
   .76500E+01   .87561E+02  -.14727E+02
   .77200E+01   .87603E+02  -.14528E+02
   .78000E+01   .87647E+02  -.14301E+02
   .78500E+01   .87672E+02  -.14165E+02
   .79000E+01   .87696E+02  -.14028E+02
   .79500E+01   .87718E+02  -.13896E+02
   .80000E+01   .87738E+02  -.13764E+02
   .80100E+01   .87742E+02  -.13738E+02
   .80200E+01   .87745E+02  -.13712E+02
   .80478E+01   .87756E+02  -.13642E+02
   .81700E+01   .87799E+02  -.13337E+02
   .83000E+01   .87838E+02  -.13025E+02
   .84000E+01   .87863E+02  -.12793E+02
   .85000E+01   .87885E+02  -.12568E+02
   .86500E+01   .87912E+02  -.12245E+02
   .88000E+01   .87935E+02  -.11934E+02
   .89000E+01   .87948E+02  -.11734E+02
   .90000E+01   .87959E+02  -.11539E+02
   .90700E+01   .87965E+02  -.11404E+02
   .91500E+01   .87970E+02  -.11251E+02
   .92200E+01   .87972E+02  -.11122E+02
   .93000E+01   .87974E+02  -.10975E+02
   .94000E+01   .87973E+02  -.10796E+02
   .95000E+01   .87970E+02  -.10621E+02
   .96500E+01   .87962E+02  -.10368E+02
   .98000E+01   .87948E+02  -.10124E+02
   .99000E+01   .87937E+02  -.99662E+01
   .10000E+02   .87923E+02  -.98128E+01
   .10150E+02   .87900E+02  -.95906E+01
   .10300E+02   .87874E+02  -.93765E+01
   .10450E+02   .87846E+02  -.91703E+01
   .10600E+02   .87814E+02  -.89714E+01
   .10750E+02   .87781E+02  -.87796E+01
   .10900E+02   .87745E+02  -.85940E+01
   .11100E+02   .87694E+02  -.83560E+01
   .11220E+02   .87661E+02  -.82184E+01
   .11290E+02   .87641E+02  -.81399E+01
   .11320E+02   .87632E+02  -.81066E+01
   .11351E+02   .87624E+02  -.80729E+01
   .11600E+02   .87550E+02  -.78050E+01
   .11800E+02   .87484E+02  -.75991E+01
   .12000E+02   .87415E+02  -.74019E+01
   .12200E+02   .87342E+02  -.72130E+01
   .12400E+02   .87266E+02  -.70314E+01
   .12600E+02   .87185E+02  -.68567E+01
   .12800E+02   .87099E+02  -.66890E+01
   .13000E+02   .87009E+02  -.65280E+01
   .13300E+02   .86866E+02  -.62984E+01
   .13500E+02   .86764E+02  -.61526E+01
   .13800E+02   .86601E+02  -.59440E+01
   .13900E+02   .86544E+02  -.58776E+01
   .14000E+02   .86485E+02  -.58112E+01
   .14150E+02   .86394E+02  -.57154E+01
   .14300E+02   .86298E+02  -.56195E+01
   .14400E+02   .86231E+02  -.55584E+01
   .14500E+02   .86163E+02  -.54973E+01
   .14650E+02   .86054E+02  -.54097E+01
   .14800E+02   .85940E+02  -.53220E+01
   .14900E+02   .85860E+02  -.52661E+01
   .15000E+02   .85777E+02  -.52101E+01
   .15070E+02   .85717E+02  -.51719E+01
   .15150E+02   .85645E+02  -.51281E+01
   .15220E+02   .85580E+02  -.50908E+01
   .15300E+02   .85503E+02  -.50481E+01
   .15380E+02   .85423E+02  -.50070E+01
   .15450E+02   .85350E+02  -.49711E+01
   .15530E+02   .85263E+02  -.49300E+01
   .15600E+02   .85184E+02  -.48941E+01
   .15680E+02   .85089E+02  -.48550E+01
   .15750E+02   .85001E+02  -.48208E+01
   .15830E+02   .84896E+02  -.47817E+01
   .15900E+02   .84799E+02  -.47475E+01
   .15950E+02   .84726E+02  -.47241E+01
   .16000E+02   .84650E+02  -.47007E+01
   .16050E+02   .84572E+02  -.46772E+01
   .16100E+02   .84489E+02  -.46538E+01
   .16180E+02   .84349E+02  -.46178E+01
   .16250E+02   .84217E+02  -.45862E+01
   .16320E+02   .84075E+02  -.45547E+01
   .16400E+02   .83897E+02  -.45187E+01
   .16450E+02   .83777E+02  -.44970E+01
   .16500E+02   .83648E+02  -.44754E+01
   .16550E+02   .83508E+02  -.44538E+01
   .16570E+02   .83449E+02  -.44451E+01
   .16600E+02   .83357E+02  -.44321E+01
   .16640E+02   .83226E+02  -.44155E+01
   .16680E+02   .83085E+02  -.43988E+01
   .16720E+02   .82931E+02  -.43822E+01
   .16750E+02   .82807E+02  -.43697E+01
   .16780E+02   .82673E+02  -.43572E+01
   .16800E+02   .82578E+02  -.43489E+01
   .16820E+02   .82477E+02  -.43405E+01
   .16840E+02   .82370E+02  -.43322E+01
   .16860E+02   .82257E+02  -.43239E+01
   .16880E+02   .82135E+02  -.43156E+01
   .16900E+02   .82005E+02  -.43072E+01
   .16915E+02   .81900E+02  -.43012E+01
   .16930E+02   .81789E+02  -.42953E+01
   .16950E+02   .81630E+02  -.42873E+01
   .16970E+02   .81454E+02  -.42793E+01
   .16985E+02   .81311E+02  -.42734E+01
   .17000E+02   .81154E+02  -.42674E+01
   .17010E+02   .81041E+02  -.42634E+01
   .17020E+02   .80921E+02  -.42594E+01
   .17030E+02   .80793E+02  -.42554E+01
   .17040E+02   .80654E+02  -.42515E+01
   .17047E+02   .80550E+02  -.42487E+01
   .17055E+02   .80423E+02  -.42455E+01
   .17063E+02   .80287E+02  -.42423E+01
   .17070E+02   .80159E+02  -.42395E+01
   .17080E+02   .79959E+02  -.42355E+01
   .17090E+02   .79733E+02  -.42315E+01
   .17095E+02   .79609E+02  -.42295E+01
   .17100E+02   .79476E+02  -.42276E+01
   .17105E+02   .79332E+02  -.42256E+01
   .17110E+02   .79176E+02  -.42236E+01
   .17113E+02   .79076E+02  -.42224E+01
   .17117E+02   .78934E+02  -.42208E+01
   .17121E+02   .78779E+02  -.42192E+01
   .17125E+02   .78611E+02  -.42176E+01
   .17128E+02   .78474E+02  -.42164E+01
   .17132E+02   .78274E+02  -.42148E+01
   .17136E+02   .78050E+02  -.42132E+01
   .17140E+02   .77797E+02  -.42116E+01
   .17144E+02   .77506E+02  -.42100E+01
   .17146E+02   .77342E+02  -.42092E+01
   .17148E+02   .77164E+02  -.42084E+01
   .17150E+02   .76968E+02  -.42076E+01
   .17152E+02   .76749E+02  -.42069E+01
   .17154E+02   .76508E+02  -.42060E+01
   .17156E+02   .76233E+02  -.42052E+01
   .17158E+02   .75917E+02  -.42045E+01
   .17160E+02   .75547E+02  -.42037E+01
   .17162E+02   .75102E+02  -.42029E+01
   .17164E+02   .74551E+02  -.42021E+01
   .17165E+02   .74220E+02  -.42017E+01
   .17166E+02   .73837E+02  -.42013E+01
   .17167E+02   .73387E+02  -.42009E+01
   .17168E+02   .72845E+02  -.42005E+01
   .17169E+02   .72170E+02  -.42001E+01
   .17170E+02   .71281E+02  -.41997E+01
   .17171E+02   .70285E+02  -.41994E+01
   .17172E+02   .68602E+02  -.41990E+01
   .17172E+02   .68573E+02  -.49003E+01
   .17172E+02   .68462E+02  -.63028E+01
   .17172E+02   .68018E+02  -.41988E+01
   .17172E+02   .66834E+02  -.41987E+01
   .17173E+02   .65662E+02  -.41986E+01
   .17173E+02   .68062E+02  -.15609E+02
   .17173E+02   .70400E+02  -.41984E+01
   .17174E+02   .65478E+02  -.41981E+01
   .17175E+02   .60634E+02  -.41978E+01
   .17176E+02   .48553E+02  -.41975E+01
   .17176E+02  -.33253E+01  -.41972E+01
   .17177E+02   .65732E+02  -.25420E+03
   .17177E+02   .14950E+03  -.41970E+01
   .17177E+02   .10525E+03  -.41968E+01
   .17178E+02   .96689E+02  -.41966E+01
   .17178E+02   .92921E+02  -.41965E+01
   .17178E+02   .88767E+02  -.41964E+01
   .17178E+02   .85461E+02  -.41963E+01
   .17179E+02   .82235E+02  -.41962E+01
   .17179E+02   .79327E+02  -.41961E+01
   .17179E+02   .80536E+02  -.13278E+02
   .17179E+02   .81108E+02  -.17820E+02
   .17180E+02   .82566E+02  -.41959E+01
   .17180E+02   .83298E+02  -.41959E+01
   .17180E+02   .80964E+02  -.10224E+02
   .17180E+02   .80864E+02  -.41957E+01
   .17180E+02   .81564E+02  -.41957E+01
   .17180E+02   .82303E+02  -.41956E+01
   .17180E+02   .82399E+02  -.12466E+02
   .17181E+02   .82503E+02  -.41955E+01
   .17181E+02   .79738E+02  -.41954E+01
   .17181E+02   .77228E+02  -.53117E+01
   .17182E+02   .76114E+02  -.75731E+01
   .17182E+02   .76553E+02  -.96167E+01
   .17182E+02   .77556E+02  -.96294E+01
   .17183E+02   .77788E+02  -.96421E+01
   .17183E+02   .77869E+02  -.96507E+01
   .17183E+02   .77938E+02  -.96635E+01
   .17183E+02   .77969E+02  -.96763E+01
   .17184E+02   .77979E+02  -.96848E+01
   .17184E+02   .77984E+02  -.96976E+01
   .17184E+02   .77984E+02  -.97061E+01
   .17184E+02   .77981E+02  -.97147E+01
   .17184E+02   .77975E+02  -.97276E+01
   .17185E+02   .77967E+02  -.97405E+01
   .17185E+02   .77962E+02  -.97491E+01
   .17185E+02   .77951E+02  -.97683E+01
   .17186E+02   .77942E+02  -.97875E+01
   .17186E+02   .77937E+02  -.98019E+01
   .17187E+02   .77933E+02  -.98211E+01
   .17187E+02   .77932E+02  -.98403E+01
   .17187E+02   .77933E+02  -.98596E+01
   .17188E+02   .77942E+02  -.98932E+01
   .17188E+02   .77953E+02  -.99153E+01
   .17189E+02   .77968E+02  -.99374E+01
   .17190E+02   .78007E+02  -.99763E+01
   .17191E+02   .78045E+02  -.10001E+02
   .17191E+02   .78082E+02  -.10023E+02
   .17192E+02   .78129E+02  -.10042E+02
   .17193E+02   .78173E+02  -.10058E+02
   .17194E+02   .78236E+02  -.10071E+02
   .17195E+02   .78303E+02  -.10080E+02
   .17197E+02   .78400E+02  -.10084E+02
   .17198E+02   .78493E+02  -.10080E+02
   .17199E+02   .78554E+02  -.10071E+02
   .17200E+02   .78611E+02  -.10063E+02
   .17201E+02   .78666E+02  -.10051E+02
   .17202E+02   .78718E+02  -.10038E+02
   .17204E+02   .78789E+02  -.10018E+02
   .17205E+02   .78855E+02  -.99984E+01
   .17206E+02   .78915E+02  -.99796E+01
   .17208E+02   .78970E+02  -.99609E+01
   .17210E+02   .79037E+02  -.99392E+01
   .17213E+02   .79129E+02  -.99179E+01
   .17215E+02   .79184E+02  -.99073E+01
   .17217E+02   .79238E+02  -.99005E+01
   .17220E+02   .79317E+02  -.98988E+01
   .17225E+02   .79447E+02  -.99044E+01
   .17230E+02   .79578E+02  -.99154E+01
   .17235E+02   .79711E+02  -.99238E+01
   .17240E+02   .79840E+02  -.99283E+01
   .17245E+02   .79962E+02  -.99243E+01
   .17250E+02   .80077E+02  -.99185E+01
   .17255E+02   .80181E+02  -.99113E+01
   .17260E+02   .80279E+02  -.99041E+01
   .17265E+02   .80371E+02  -.99006E+01
   .17270E+02   .80456E+02  -.98972E+01
   .17275E+02   .80537E+02  -.98937E+01
   .17280E+02   .80618E+02  -.98902E+01
   .17290E+02   .80772E+02  -.98879E+01
   .17300E+02   .80918E+02  -.98856E+01
   .17307E+02   .81016E+02  -.98792E+01
   .17315E+02   .81119E+02  -.98719E+01
   .17323E+02   .81217E+02  -.98645E+01
   .17330E+02   .81299E+02  -.98581E+01
   .17338E+02   .81388E+02  -.98517E+01
   .17345E+02   .81462E+02  -.98460E+01
   .17360E+02   .81611E+02  -.98340E+01
   .17380E+02   .81795E+02  -.98179E+01
   .17400E+02   .81963E+02  -.98018E+01
   .17420E+02   .82119E+02  -.97845E+01
   .17440E+02   .82262E+02  -.97672E+01
   .17460E+02   .82396E+02  -.97499E+01
   .17469E+02   .82453E+02  -.97421E+01
   .17479E+02   .82514E+02  -.97334E+01
   .17500E+02   .82638E+02  -.97149E+01
   .17530E+02   .82801E+02  -.96885E+01
   .17560E+02   .82950E+02  -.96621E+01
   .17590E+02   .83088E+02  -.96357E+01
   .17620E+02   .83215E+02  -.96092E+01
   .17650E+02   .83334E+02  -.95828E+01
   .17680E+02   .83445E+02  -.95564E+01
   .17700E+02   .83515E+02  -.95388E+01
   .17730E+02   .83614E+02  -.95124E+01
   .17750E+02   .83678E+02  -.94948E+01
   .17800E+02   .83828E+02  -.94507E+01
   .17850E+02   .83966E+02  -.94067E+01
   .17900E+02   .84094E+02  -.93626E+01
   .17950E+02   .84213E+02  -.93188E+01
   .18000E+02   .84322E+02  -.92750E+01
   .18050E+02   .84423E+02  -.92312E+01
   .18100E+02   .84518E+02  -.91873E+01
   .18150E+02   .84605E+02  -.91448E+01
   .18200E+02   .84688E+02  -.91023E+01
   .18250E+02   .84764E+02  -.90597E+01
   .18300E+02   .84837E+02  -.90172E+01
   .18350E+02   .84904E+02  -.89755E+01
   .18400E+02   .84967E+02  -.89339E+01
   .18450E+02   .85027E+02  -.88922E+01
   .18500E+02   .85082E+02  -.88506E+01
   .18550E+02   .85134E+02  -.88107E+01
   .18600E+02   .85182E+02  -.87709E+01
   .18650E+02   .85227E+02  -.87310E+01
   .18700E+02   .85269E+02  -.86912E+01
   .18800E+02   .85347E+02  -.86149E+01
   .18900E+02   .85414E+02  -.85387E+01
   .19000E+02   .85472E+02  -.84646E+01
   .19110E+02   .85526E+02  -.83835E+01
   .19180E+02   .85555E+02  -.83326E+01
   .19250E+02   .85580E+02  -.82822E+01
   .19320E+02   .85601E+02  -.82317E+01
   .19400E+02   .85620E+02  -.81741E+01
   .19450E+02   .85629E+02  -.81387E+01
   .19500E+02   .85635E+02  -.81034E+01
   .19600E+02   .85642E+02  -.80327E+01
   .19700E+02   .85639E+02  -.79639E+01
   .19800E+02   .85627E+02  -.78952E+01
   .19900E+02   .85605E+02  -.78282E+01
   .19950E+02   .85590E+02  -.77948E+01
   .20000E+02   .85573E+02  -.77613E+01
   .20070E+02   .85542E+02  -.77148E+01
   .20150E+02   .85498E+02  -.76615E+01
   .20230E+02   .85444E+02  -.76083E+01
   .20300E+02   .85386E+02  -.75617E+01
   .20350E+02   .85339E+02  -.75296E+01
   .20400E+02   .85285E+02  -.74975E+01
   .20450E+02   .85225E+02  -.74653E+01
   .20470E+02   .85198E+02  -.74525E+01
   .20500E+02   .85156E+02  -.74332E+01
   .20530E+02   .85110E+02  -.74146E+01
   .20570E+02   .85044E+02  -.73899E+01
   .20610E+02   .84969E+02  -.73652E+01
   .20650E+02   .84885E+02  -.73405E+01
   .20670E+02   .84839E+02  -.73281E+01
   .20690E+02   .84790E+02  -.73157E+01
   .20710E+02   .84738E+02  -.73034E+01
   .20730E+02   .84681E+02  -.72910E+01
   .20750E+02   .84620E+02  -.72786E+01
   .20770E+02   .84554E+02  -.72663E+01
   .20785E+02   .84501E+02  -.72570E+01
   .20800E+02   .84445E+02  -.72477E+01
   .20815E+02   .84384E+02  -.72388E+01
   .20830E+02   .84318E+02  -.72298E+01
   .20845E+02   .84247E+02  -.72209E+01
   .20860E+02   .84169E+02  -.72119E+01
   .20875E+02   .84084E+02  -.72030E+01
   .20890E+02   .83990E+02  -.71940E+01
   .20905E+02   .83885E+02  -.71851E+01
   .20920E+02   .83767E+02  -.71761E+01
   .20928E+02   .83696E+02  -.71713E+01
   .20935E+02   .83630E+02  -.71672E+01
   .20943E+02   .83548E+02  -.71624E+01
   .20950E+02   .83470E+02  -.71582E+01
   .20957E+02   .83385E+02  -.71540E+01
   .20965E+02   .83276E+02  -.71493E+01
   .20972E+02   .83171E+02  -.71451E+01
   .20980E+02   .83033E+02  -.71403E+01
   .20988E+02   .82872E+02  -.71355E+01
   .20992E+02   .82781E+02  -.71332E+01
   .20995E+02   .82706E+02  -.71314E+01
   .20999E+02   .82597E+02  -.71290E+01
   .21003E+02   .82474E+02  -.71266E+01
   .21007E+02   .82334E+02  -.71242E+01
   .21010E+02   .82215E+02  -.71224E+01
   .21014E+02   .82031E+02  -.71200E+01
   .21017E+02   .81869E+02  -.71182E+01
   .21021E+02   .81606E+02  -.71158E+01
   .21022E+02   .81489E+02  -.71150E+01
   .21024E+02   .81358E+02  -.71141E+01
   .21026E+02   .81157E+02  -.71129E+01
   .21028E+02   .80916E+02  -.71117E+01
   .21029E+02   .80700E+02  -.71108E+01
   .21031E+02   .80439E+02  -.71099E+01
   .21032E+02   .80233E+02  -.71093E+01
   .21033E+02   .79991E+02  -.71087E+01
   .21034E+02   .79701E+02  -.71081E+01
   .21035E+02   .79343E+02  -.71075E+01
   .21036E+02   .78881E+02  -.71069E+01
   .21037E+02   .78229E+02  -.71063E+01
   .21038E+02   .77637E+02  -.71059E+01
   .21038E+02   .76234E+02  -.71055E+01
   .21038E+02   .76487E+02  -.82624E+01
   .21038E+02   .76735E+02  -.94192E+01
   .21039E+02   .77222E+02  -.11733E+02
   .21039E+02   .78130E+02  -.71050E+01
   .21040E+02   .75913E+02  -.71045E+01
   .21041E+02   .73411E+02  -.71041E+01
   .21041E+02   .70825E+02  -.71038E+01
   .21042E+02   .67298E+02  -.71036E+01
   .21042E+02   .60364E+02  -.71033E+01
   .21042E+02   .43931E+02  -.71031E+01
   .21043E+02   .62232E+02  -.67975E+02
   .21043E+02   .80534E+02  -.12885E+03
   .21043E+02   .11712E+03  -.71026E+01
   .21044E+02   .10064E+03  -.71024E+01
   .21044E+02   .94922E+02  -.71022E+01
   .21044E+02   .91565E+02  -.71020E+01
   .21045E+02   .89304E+02  -.71019E+01
   .21045E+02   .87602E+02  -.71017E+01
   .21045E+02   .86200E+02  -.71015E+01
   .21045E+02   .84892E+02  -.71013E+01
   .21046E+02   .83325E+02  -.71011E+01
   .21046E+02   .83153E+02  -.71010E+01
   .21046E+02   .83069E+02  -.71010E+01
   .21046E+02   .83040E+02  -.12037E+02
   .21046E+02   .82849E+02  -.73496E+01
   .21047E+02   .82800E+02  -.77533E+01
   .21047E+02   .82782E+02  -.13343E+02
   .21047E+02   .83534E+02  -.96792E+01
   .21047E+02   .84374E+02  -.96940E+01
   .21048E+02   .84020E+02  -.97281E+01
   .21048E+02   .83758E+02  -.97490E+01
   .21049E+02   .83525E+02  -.97768E+01
   .21049E+02   .83367E+02  -.97990E+01
   .21049E+02   .83250E+02  -.98211E+01
   .21050E+02   .83156E+02  -.98407E+01
   .21050E+02   .83081E+02  -.98603E+01
   .21051E+02   .83020E+02  -.98784E+01
   .21051E+02   .82969E+02  -.98965E+01
   .21051E+02   .82927E+02  -.99121E+01
   .21052E+02   .82892E+02  -.99277E+01
   .21052E+02   .82845E+02  -.99550E+01
   .21053E+02   .82808E+02  -.99808E+01
   .21054E+02   .82789E+02  -.10003E+02
   .21055E+02   .82776E+02  -.10023E+02
   .21056E+02   .82773E+02  -.10040E+02
   .21056E+02   .82775E+02  -.10055E+02
   .21057E+02   .82781E+02  -.10067E+02
   .21059E+02   .82804E+02  -.10084E+02
   .21059E+02   .82818E+02  -.10088E+02
   .21060E+02   .82836E+02  -.10092E+02
   .21062E+02   .82869E+02  -.10091E+02
   .21063E+02   .82904E+02  -.10090E+02
   .21064E+02   .82927E+02  -.10085E+02
   .21065E+02   .82950E+02  -.10080E+02
   .21066E+02   .82982E+02  -.10068E+02
   .21068E+02   .83011E+02  -.10057E+02
   .21069E+02   .83029E+02  -.10050E+02
   .21070E+02   .83045E+02  -.10042E+02
   .21073E+02   .83092E+02  -.10024E+02
   .21075E+02   .83119E+02  -.10011E+02
   .21078E+02   .83157E+02  -.10002E+02
   .21080E+02   .83180E+02  -.99950E+01
   .21083E+02   .83215E+02  -.99929E+01
   .21085E+02   .83238E+02  -.99916E+01
   .21090E+02   .83298E+02  -.99953E+01
   .21095E+02   .83360E+02  -.99995E+01
   .21100E+02   .83424E+02  -.10004E+02
   .21105E+02   .83486E+02  -.10002E+02
   .21110E+02   .83544E+02  -.99998E+01
   .21115E+02   .83599E+02  -.99940E+01
   .21120E+02   .83648E+02  -.99882E+01
   .21125E+02   .83693E+02  -.99857E+01
   .21130E+02   .83738E+02  -.99831E+01
   .21140E+02   .83822E+02  -.99780E+01
   .21150E+02   .83900E+02  -.99728E+01
   .21160E+02   .83973E+02  -.99677E+01
   .21170E+02   .84041E+02  -.99602E+01
   .21180E+02   .84103E+02  -.99527E+01
   .21190E+02   .84161E+02  -.99452E+01
   .21200E+02   .84215E+02  -.99377E+01
   .21215E+02   .84290E+02  -.99273E+01
   .21230E+02   .84359E+02  -.99169E+01
   .21245E+02   .84422E+02  -.99065E+01
   .21260E+02   .84481E+02  -.98961E+01
   .21270E+02   .84518E+02  -.98892E+01
   .21280E+02   .84553E+02  -.98823E+01
   .21295E+02   .84602E+02  -.98719E+01
   .21310E+02   .84648E+02  -.98615E+01
   .21325E+02   .84691E+02  -.98507E+01
   .21340E+02   .84732E+02  -.98400E+01
   .21370E+02   .84804E+02  -.98185E+01
   .21400E+02   .84866E+02  -.97970E+01
   .21421E+02   .84906E+02  -.97816E+01
   .21450E+02   .84951E+02  -.97605E+01
   .21470E+02   .84977E+02  -.97458E+01
   .21490E+02   .85000E+02  -.97310E+01
   .21510E+02   .85019E+02  -.97163E+01
   .21530E+02   .85034E+02  -.97015E+01
   .21560E+02   .85048E+02  -.96794E+01
   .21580E+02   .85051E+02  -.96646E+01
   .21600E+02   .85049E+02  -.96499E+01
   .21630E+02   .85033E+02  -.96286E+01
   .21650E+02   .85013E+02  -.96144E+01
   .21660E+02   .84999E+02  -.96074E+01
   .21670E+02   .84983E+02  -.96003E+01
   .21685E+02   .84951E+02  -.95896E+01
   .21700E+02   .84911E+02  -.95790E+01
   .21710E+02   .84877E+02  -.95719E+01
   .21720E+02   .84836E+02  -.95648E+01
   .21727E+02   .84802E+02  -.95598E+01
   .21735E+02   .84757E+02  -.95542E+01
   .21743E+02   .84702E+02  -.95485E+01
   .21750E+02   .84645E+02  -.95435E+01
   .21755E+02   .84597E+02  -.95400E+01
   .21760E+02   .84541E+02  -.95365E+01
   .21765E+02   .84475E+02  -.95329E+01
   .21768E+02   .84429E+02  -.95308E+01
   .21770E+02   .84395E+02  -.95294E+01
   .21774E+02   .84315E+02  -.95265E+01
   .21777E+02   .84244E+02  -.95244E+01
   .21780E+02   .84158E+02  -.95223E+01
   .21781E+02   .84107E+02  -.95212E+01
   .21783E+02   .84050E+02  -.95202E+01
   .21785E+02   .83984E+02  -.95191E+01
   .21786E+02   .83907E+02  -.95180E+01
   .21788E+02   .83816E+02  -.95170E+01
   .21788E+02   .83758E+02  -.95164E+01
   .21789E+02   .83702E+02  -.95159E+01
   .21789E+02   .83666E+02  -.95156E+01
   .21790E+02   .83598E+02  -.95153E+01
   .21790E+02   .83597E+02  -.95151E+01
   .21791E+02   .83553E+02  -.95148E+01
   .21791E+02   .83505E+02  -.95146E+01
   .21791E+02   .83452E+02  -.95143E+01
   .21792E+02   .83343E+02  -.95138E+01
   .21793E+02   .83184E+02  -.95132E+01
   .21794E+02   .82994E+02  -.95127E+01
   .21794E+02   .82651E+02  -.95121E+01
   .21795E+02   .81816E+02  -.95116E+01
   .21795E+02   .81922E+02  -.10107E+02
   .21795E+02   .82021E+02  -.10702E+02
   .21795E+02   .82193E+02  -.11893E+02
   .21796E+02   .82226E+02  -.95110E+01
   .21796E+02   .81495E+02  -.95108E+01
   .21796E+02   .80108E+02  -.95106E+01
   .21797E+02   .83020E+02  -.20393E+02
   .21797E+02   .85901E+02  -.95100E+01
   .21798E+02   .84400E+02  -.95097E+01
   .21798E+02   .83032E+02  -.95095E+01
   .21798E+02   .83050E+02  -.95093E+01
   .21799E+02   .82998E+02  -.12648E+02
   .21799E+02   .83031E+02  -.95096E+01
   .21799E+02   .82973E+02  -.98164E+01
   .21799E+02   .83235E+02  -.99831E+01
   .21799E+02   .83397E+02  -.13535E+02
   .21800E+02   .84365E+02  -.11080E+02
   .21800E+02   .84300E+02  -.11075E+02
   .21800E+02   .84205E+02  -.11068E+02
   .21801E+02   .84156E+02  -.11062E+02
   .21801E+02   .84133E+02  -.11055E+02
   .21801E+02   .84123E+02  -.11049E+02
   .21802E+02   .84122E+02  -.11042E+02
   .21802E+02   .84123E+02  -.11036E+02
   .21802E+02   .84127E+02  -.11031E+02
   .21802E+02   .84134E+02  -.11025E+02
   .21803E+02   .84145E+02  -.11020E+02
   .21803E+02   .84154E+02  -.11015E+02
   .21803E+02   .84167E+02  -.11009E+02
   .21804E+02   .84190E+02  -.10999E+02
   .21805E+02   .84215E+02  -.10988E+02
   .21806E+02   .84235E+02  -.10981E+02
   .21806E+02   .84259E+02  -.10974E+02
   .21807E+02   .84282E+02  -.10967E+02
   .21808E+02   .84300E+02  -.10961E+02
   .21809E+02   .84324E+02  -.10956E+02
   .21810E+02   .84347E+02  -.10951E+02
   .21812E+02   .84380E+02  -.10947E+02
   .21813E+02   .84411E+02  -.10943E+02
   .21814E+02   .84430E+02  -.10943E+02
   .21815E+02   .84449E+02  -.10942E+02
   .21818E+02   .84504E+02  -.10944E+02
   .21820E+02   .84539E+02  -.10945E+02
   .21824E+02   .84605E+02  -.10950E+02
   .21828E+02   .84668E+02  -.10954E+02
   .21832E+02   .84728E+02  -.10955E+02
   .21835E+02   .84770E+02  -.10955E+02
   .21839E+02   .84822E+02  -.10952E+02
   .21843E+02   .84870E+02  -.10949E+02
   .21847E+02   .84914E+02  -.10944E+02
   .21850E+02   .84944E+02  -.10940E+02
   .21858E+02   .85018E+02  -.10934E+02
   .21865E+02   .85077E+02  -.10929E+02
   .21873E+02   .85139E+02  -.10923E+02
   .21880E+02   .85189E+02  -.10917E+02
   .21890E+02   .85255E+02  -.10911E+02
   .21900E+02   .85317E+02  -.10904E+02
   .21910E+02   .85375E+02  -.10897E+02
   .21920E+02   .85429E+02  -.10889E+02
   .21935E+02   .85504E+02  -.10878E+02
   .21950E+02   .85573E+02  -.10867E+02
   .21960E+02   .85617E+02  -.10860E+02
   .21970E+02   .85658E+02  -.10852E+02
   .22000E+02   .85775E+02  -.10831E+02
   .22020E+02   .85847E+02  -.10816E+02
   .22040E+02   .85914E+02  -.10801E+02
   .22060E+02   .85978E+02  -.10786E+02
   .22080E+02   .86039E+02  -.10771E+02
   .22100E+02   .86096E+02  -.10756E+02
   .22120E+02   .86152E+02  -.10742E+02
   .22140E+02   .86205E+02  -.10727E+02
   .22151E+02   .86233E+02  -.10719E+02
   .22163E+02   .86263E+02  -.10710E+02
   .22200E+02   .86353E+02  -.10683E+02
   .22230E+02   .86422E+02  -.10661E+02
   .22270E+02   .86509E+02  -.10632E+02
   .22300E+02   .86572E+02  -.10611E+02
   .22350E+02   .86672E+02  -.10575E+02
   .22400E+02   .86765E+02  -.10539E+02
   .22450E+02   .86853E+02  -.10502E+02
   .22500E+02   .86937E+02  -.10466E+02
   .22550E+02   .87017E+02  -.10432E+02
   .22600E+02   .87093E+02  -.10398E+02
   .22650E+02   .87166E+02  -.10364E+02
   .22700E+02   .87236E+02  -.10330E+02
   .22750E+02   .87304E+02  -.10296E+02
   .22800E+02   .87370E+02  -.10262E+02
   .22850E+02   .87434E+02  -.10228E+02
   .22900E+02   .87496E+02  -.10194E+02
   .22950E+02   .87556E+02  -.10161E+02
   .23000E+02   .87614E+02  -.10128E+02
   .23050E+02   .87671E+02  -.10095E+02
   .23100E+02   .87725E+02  -.10062E+02
   .23200E+02   .87830E+02  -.99960E+01
   .23300E+02   .87930E+02  -.99301E+01
   .23380E+02   .88006E+02  -.98793E+01
   .23450E+02   .88070E+02  -.98349E+01
   .23520E+02   .88133E+02  -.97904E+01
   .23600E+02   .88201E+02  -.97396E+01
   .23700E+02   .88284E+02  -.96784E+01
   .23800E+02   .88363E+02  -.96172E+01
   .23900E+02   .88439E+02  -.95559E+01
   .24000E+02   .88512E+02  -.94947E+01
   .24070E+02   .88562E+02  -.94528E+01
   .24150E+02   .88617E+02  -.94050E+01
   .24230E+02   .88670E+02  -.93572E+01
   .24300E+02   .88716E+02  -.93153E+01
   .24400E+02   .88779E+02  -.92577E+01
   .24500E+02   .88839E+02  -.92001E+01
   .24600E+02   .88898E+02  -.91424E+01
   .24700E+02   .88954E+02  -.90848E+01
   .24780E+02   .88998E+02  -.90403E+01
   .24850E+02   .89036E+02  -.90014E+01
   .25000E+02   .89114E+02  -.89180E+01
   .25070E+02   .89150E+02  -.88795E+01
   .25150E+02   .89189E+02  -.88355E+01
   .25230E+02   .89227E+02  -.87914E+01
   .25300E+02   .89259E+02  -.87529E+01
   .25450E+02   .89326E+02  -.86729E+01
   .25600E+02   .89390E+02  -.85928E+01
   .25750E+02   .89451E+02  -.85152E+01
   .25900E+02   .89510E+02  -.84375E+01
   .26050E+02   .89565E+02  -.83623E+01
   .26200E+02   .89619E+02  -.82871E+01
   .26350E+02   .89670E+02  -.82142E+01
   .26500E+02   .89719E+02  -.81412E+01
   .26650E+02   .89766E+02  -.80704E+01
   .26800E+02   .89812E+02  -.79995E+01
   .26950E+02   .89855E+02  -.79307E+01
   .27100E+02   .89897E+02  -.78618E+01
   .27300E+02   .89951E+02  -.77729E+01
   .27390E+02   .89974E+02  -.77329E+01
   .27430E+02   .89984E+02  -.77151E+01
   .27450E+02   .89989E+02  -.77062E+01
   .27460E+02   .89992E+02  -.77017E+01
   .27465E+02   .89993E+02  -.76995E+01
   .27468E+02   .89994E+02  -.76982E+01
   .27469E+02   .89994E+02  -.76977E+01
   .27469E+02   .89994E+02  -.76975E+01
   .27470E+02   .89996E+02  -.76973E+01
   .27470E+02   .89994E+02  -.76972E+01
   .27471E+02   .89994E+02  -.76971E+01
   .27471E+02   .89994E+02  -.76968E+01
   .27472E+02   .89995E+02  -.76964E+01
   .27474E+02   .89995E+02  -.76956E+01
   .27478E+02   .89996E+02  -.76938E+01
   .27485E+02   .89998E+02  -.76908E+01
   .27500E+02   .90002E+02  -.76844E+01
   .27540E+02   .90011E+02  -.76672E+01
   .27600E+02   .90026E+02  -.76413E+01
   .27800E+02   .90073E+02  -.75552E+01
   .27950E+02   .90107E+02  -.74924E+01
   .28100E+02   .90141E+02  -.74296E+01
   .28250E+02   .90172E+02  -.73682E+01
   .28400E+02   .90203E+02  -.73068E+01
   .28550E+02   .90232E+02  -.72470E+01
   .28700E+02   .90260E+02  -.71873E+01
   .28800E+02   .90279E+02  -.71487E+01
   .28900E+02   .90296E+02  -.71101E+01
   .29000E+02   .90314E+02  -.70714E+01
   .29100E+02   .90331E+02  -.70328E+01
   .29250E+02   .90356E+02  -.69767E+01
   .29400E+02   .90380E+02  -.69205E+01
   .29550E+02   .90403E+02  -.68658E+01
   .29700E+02   .90425E+02  -.68112E+01
   .29850E+02   .90447E+02  -.67579E+01
   .29920E+02   .90457E+02  -.67330E+01
   .30000E+02   .90468E+02  -.67046E+01
   .30100E+02   .90482E+02  -.66699E+01
   .30200E+02   .90496E+02  -.66352E+01
   .30300E+02   .90509E+02  -.66005E+01
   .30400E+02   .90521E+02  -.65658E+01
   .30500E+02   .90534E+02  -.65322E+01
   .30600E+02   .90546E+02  -.64987E+01
   .30700E+02   .90558E+02  -.64652E+01
   .30800E+02   .90569E+02  -.64316E+01
   .30900E+02   .90581E+02  -.63992E+01
   .31000E+02   .90592E+02  -.63667E+01
   .31100E+02   .90603E+02  -.63343E+01
   .31200E+02   .90613E+02  -.63019E+01
   .31350E+02   .90629E+02  -.62546E+01
   .31420E+02   .90636E+02  -.62326E+01
   .31500E+02   .90645E+02  -.62074E+01
   .31600E+02   .90655E+02  -.61763E+01
   .31700E+02   .90664E+02  -.61453E+01
   .31800E+02   .90674E+02  -.61143E+01
   .31900E+02   .90683E+02  -.60832E+01
   .32000E+02   .90691E+02  -.60532E+01
   .32100E+02   .90700E+02  -.60232E+01
   .32200E+02   .90709E+02  -.59931E+01
   .32300E+02   .90717E+02  -.59631E+01
   .32450E+02   .90729E+02  -.59193E+01
   .32600E+02   .90740E+02  -.58755E+01
   .32800E+02   .90755E+02  -.58187E+01
   .33000E+02   .90770E+02  -.57619E+01
   .33100E+02   .90777E+02  -.57341E+01
   .33200E+02   .90783E+02  -.57062E+01
   .33300E+02   .90790E+02  -.56784E+01
   .33400E+02   .90796E+02  -.56506E+01
   .33600E+02   .90808E+02  -.55966E+01
   .33800E+02   .90820E+02  -.55427E+01
   .33950E+02   .90828E+02  -.55032E+01
   .34100E+02   .90836E+02  -.54638E+01
   .34300E+02   .90845E+02  -.54125E+01
   .34500E+02   .90855E+02  -.53613E+01
   .34700E+02   .90864E+02  -.53116E+01
   .34900E+02   .90872E+02  -.52618E+01
   .35100E+02   .90879E+02  -.52137E+01
   .35300E+02   .90887E+02  -.51655E+01
   .35500E+02   .90894E+02  -.51189E+01
   .35700E+02   .90900E+02  -.50722E+01
   .35900E+02   .90906E+02  -.50267E+01
   .36030E+02   .90910E+02  -.49971E+01
   .36300E+02   .90917E+02  -.49375E+01
   .36500E+02   .90922E+02  -.48934E+01
   .36800E+02   .90929E+02  -.48294E+01
   .37000E+02   .90934E+02  -.47867E+01
   .37300E+02   .90940E+02  -.47250E+01
   .37500E+02   .90943E+02  -.46838E+01
   .37800E+02   .90948E+02  -.46242E+01
   .38000E+02   .90951E+02  -.45844E+01
   .38300E+02   .90955E+02  -.45269E+01
   .38500E+02   .90957E+02  -.44886E+01
   .38800E+02   .90960E+02  -.44330E+01
   .39000E+02   .90962E+02  -.43960E+01
   .39500E+02   .90966E+02  -.43064E+01
   .39800E+02   .90968E+02  -.42544E+01
   .40000E+02   .90970E+02  -.42197E+01
   .40400E+02   .90972E+02  -.41523E+01
   .40800E+02   .90973E+02  -.40848E+01
   .41100E+02   .90973E+02  -.40367E+01
   .41500E+02   .90972E+02  -.39724E+01
   .41900E+02   .90971E+02  -.39111E+01
   .42300E+02   .90970E+02  -.38499E+01
   .42600E+02   .90969E+02  -.38060E+01
   .43000E+02   .90966E+02  -.37476E+01
   .43400E+02   .90964E+02  -.36915E+01
   .43800E+02   .90961E+02  -.36353E+01
   .44100E+02   .90958E+02  -.35951E+01
   .44500E+02   .90954E+02  -.35415E+01
   .44900E+02   .90950E+02  -.34902E+01
   .45300E+02   .90946E+02  -.34389E+01
   .46000E+02   .90937E+02  -.33530E+01
   .46500E+02   .90930E+02  -.32937E+01
   .47000E+02   .90923E+02  -.32361E+01
   .47500E+02   .90916E+02  -.31809E+01
   .48000E+02   .90909E+02  -.31256E+01
   .49000E+02   .90893E+02  -.30210E+01
   .49500E+02   .90885E+02  -.29709E+01
   .50000E+02   .90877E+02  -.29220E+01
   .50500E+02   .90868E+02  -.28746E+01
   .51000E+02   .90859E+02  -.28271E+01
   .51500E+02   .90850E+02  -.27821E+01
   .52000E+02   .90841E+02  -.27370E+01
   .53000E+02   .90823E+02  -.26515E+01
   .54000E+02   .90803E+02  -.25701E+01
   .55000E+02   .90784E+02  -.24927E+01
   .56000E+02   .90764E+02  -.24186E+01
   .56800E+02   .90748E+02  -.23619E+01
   .57530E+02   .90733E+02  -.23119E+01
   .58000E+02   .90723E+02  -.22806E+01
   .58500E+02   .90713E+02  -.22480E+01
   .59540E+02   .90691E+02  -.21827E+01
   .59800E+02   .90686E+02  -.21668E+01
   .60000E+02   .90682E+02  -.21547E+01
   .60800E+02   .90665E+02  -.21072E+01
   .61500E+02   .90650E+02  -.20670E+01
   .62300E+02   .90634E+02  -.20226E+01
   .63000E+02   .90619E+02  -.19849E+01
   .64000E+02   .90598E+02  -.19330E+01
   .65000E+02   .90577E+02  -.18832E+01
   .65900E+02   .90558E+02  -.18400E+01
   .66830E+02   .90538E+02  -.17969E+01
   .67400E+02   .90526E+02  -.17714E+01
   .67900E+02   .90515E+02  -.17494E+01
   .69041E+02   .90491E+02  -.17009E+01
   .69500E+02   .90481E+02  -.16819E+01
   .70000E+02   .90470E+02  -.16617E+01
   .71000E+02   .90449E+02  -.16222E+01
   .72000E+02   .90427E+02  -.15842E+01
   .73500E+02   .90395E+02  -.15298E+01
   .74960E+02   .90363E+02  -.14797E+01
   .75500E+02   .90351E+02  -.14618E+01
   .76000E+02   .90340E+02  -.14455E+01
   .77110E+02   .90316E+02  -.14105E+01
   .78600E+02   .90283E+02  -.13655E+01
   .79300E+02   .90267E+02  -.13451E+01
   .80000E+02   .90251E+02  -.13252E+01
   .81500E+02   .90217E+02  -.12840E+01
   .83000E+02   .90182E+02  -.12448E+01
   .84000E+02   .90158E+02  -.12197E+01
   .85000E+02   .90134E+02  -.11954E+01
   .86500E+02   .90097E+02  -.11603E+01
   .88000E+02   .90059E+02  -.11269E+01
   .89000E+02   .90034E+02  -.11055E+01
   .90000E+02   .90007E+02  -.10847E+01
   .91500E+02   .89966E+02  -.10545E+01
   .93000E+02   .89923E+02  -.10257E+01
   .94000E+02   .89893E+02  -.10072E+01
   .95000E+02   .89862E+02  -.98919E+00
   .95800E+02   .89837E+02  -.97530E+00
   .96500E+02   .89814E+02  -.96314E+00
   .97300E+02   .89786E+02  -.94981E+00
   .98000E+02   .89762E+02  -.93816E+00
   .98500E+02   .89744E+02  -.93011E+00
   .99000E+02   .89725E+02  -.92207E+00
   .99500E+02   .89706E+02  -.91424E+00
   .10000E+03   .89687E+02  -.90641E+00
   .10100E+03   .89646E+02  -.89131E+00
   .10150E+03   .89625E+02  -.88376E+00
   .10200E+03   .89603E+02  -.87620E+00
   .10250E+03   .89580E+02  -.86904E+00
   .10300E+03   .89556E+02  -.86188E+00
   .10350E+03   .89532E+02  -.85472E+00
   .10400E+03   .89506E+02  -.84755E+00
   .10450E+03   .89479E+02  -.84076E+00
   .10500E+03   .89452E+02  -.83396E+00
   .10550E+03   .89423E+02  -.82716E+00
   .10600E+03   .89393E+02  -.82036E+00
   .10650E+03   .89361E+02  -.81391E+00
   .10700E+03   .89327E+02  -.80745E+00
   .10750E+03   .89292E+02  -.80099E+00
   .10800E+03   .89254E+02  -.79453E+00
   .10850E+03   .89214E+02  -.78839E+00
   .10900E+03   .89171E+02  -.78224E+00
   .10950E+03   .89126E+02  -.77610E+00
   .10980E+03   .89096E+02  -.77242E+00
   .11000E+03   .89076E+02  -.76996E+00
   .11030E+03   .89044E+02  -.76645E+00
   .11050E+03   .89022E+02  -.76411E+00
   .11080E+03   .88987E+02  -.76061E+00
   .11100E+03   .88963E+02  -.75827E+00
   .11130E+03   .88925E+02  -.75476E+00
   .11150E+03   .88898E+02  -.75242E+00
   .11180E+03   .88855E+02  -.74891E+00
   .11200E+03   .88825E+02  -.74657E+00
   .11230E+03   .88777E+02  -.74319E+00
   .11250E+03   .88743E+02  -.74094E+00
   .11280E+03   .88688E+02  -.73756E+00
   .11300E+03   .88648E+02  -.73531E+00
   .11330E+03   .88584E+02  -.73201E+00
   .11340E+03   .88561E+02  -.73090E+00
   .11350E+03   .88537E+02  -.72980E+00
   .11365E+03   .88499E+02  -.72816E+00
   .11380E+03   .88460E+02  -.72650E+00
   .11390E+03   .88432E+02  -.72540E+00
   .11400E+03   .88403E+02  -.72430E+00
   .11415E+03   .88356E+02  -.72268E+00
   .11430E+03   .88307E+02  -.72106E+00
   .11440E+03   .88271E+02  -.71998E+00
   .11450E+03   .88233E+02  -.71890E+00
   .11457E+03   .88206E+02  -.71815E+00
   .11465E+03   .88173E+02  -.71730E+00
   .11472E+03   .88143E+02  -.71655E+00
   .11480E+03   .88106E+02  -.71570E+00
   .11488E+03   .88068E+02  -.71485E+00
   .11495E+03   .88032E+02  -.71410E+00
   .11502E+03   .87995E+02  -.71335E+00
   .11510E+03   .87949E+02  -.71250E+00
   .11517E+03   .87907E+02  -.71176E+00
   .11525E+03   .87854E+02  -.71092E+00
   .11533E+03   .87798E+02  -.71007E+00
   .11540E+03   .87744E+02  -.70933E+00
   .11547E+03   .87686E+02  -.70860E+00
   .11551E+03   .87650E+02  -.70818E+00
   .11555E+03   .87613E+02  -.70776E+00
   .11559E+03   .87573E+02  -.70734E+00
   .11563E+03   .87531E+02  -.70692E+00
   .11567E+03   .87486E+02  -.70650E+00
   .11570E+03   .87450E+02  -.70619E+00
   .11574E+03   .87399E+02  -.70577E+00
   .11578E+03   .87344E+02  -.70536E+00
   .11581E+03   .87300E+02  -.70504E+00
   .11585E+03   .87237E+02  -.70463E+00
   .11588E+03   .87185E+02  -.70431E+00
   .11590E+03   .87148E+02  -.70411E+00
   .11592E+03   .87110E+02  -.70390E+00
   .11594E+03   .87069E+02  -.70369E+00
   .11596E+03   .87025E+02  -.70348E+00
   .11598E+03   .86978E+02  -.70328E+00
   .11600E+03   .86928E+02  -.70307E+00
   .11601E+03   .86888E+02  -.70291E+00
   .11603E+03   .86846E+02  -.70276E+00
   .11605E+03   .86784E+02  -.70255E+00
   .11607E+03   .86716E+02  -.70234E+00
   .11608E+03   .86687E+02  -.70226E+00
   .11608E+03   .86659E+02  -.70219E+00
   .11609E+03   .86626E+02  -.70210E+00
   .11610E+03   .86607E+02  -.70206E+00
   .11610E+03   .86593E+02  -.70203E+00
   .11610E+03   .86580E+02  -.70200E+00
   .11611E+03   .86572E+02  -.70198E+00
   .11611E+03   .86568E+02  -.70196E+00
   .11611E+03   .86560E+02  -.70195E+00
   .11611E+03   .86556E+02  -.70194E+00
   .11611E+03   .86552E+02  -.73831E+00
   .11611E+03   .86540E+02  -.73829E+00
   .11611E+03   .86531E+02  -.73828E+00
   .11612E+03   .86511E+02  -.73825E+00
   .11613E+03   .86474E+02  -.73818E+00
   .11614E+03   .86431E+02  -.73812E+00
   .11615E+03   .86393E+02  -.73807E+00
   .11615E+03   .86357E+02  -.73803E+00
   .11616E+03   .86313E+02  -.73798E+00
   .11617E+03   .86272E+02  -.73793E+00
   .11618E+03   .86208E+02  -.73787E+00
   .11619E+03   .86137E+02  -.73781E+00
   .11620E+03   .86057E+02  -.73774E+00
   .11621E+03   .86014E+02  -.73771E+00
   .11621E+03   .85967E+02  -.73768E+00
   .11621E+03   .85917E+02  -.73765E+00
   .11622E+03   .85863E+02  -.73762E+00
   .11622E+03   .85805E+02  -.73759E+00
   .11623E+03   .85741E+02  -.73755E+00
   .11624E+03   .85671E+02  -.73752E+00
   .11624E+03   .85592E+02  -.73749E+00
   .11625E+03   .85505E+02  -.73746E+00
   .11625E+03   .85446E+02  -.73744E+00
   .11625E+03   .85404E+02  -.73743E+00
   .11625E+03   .85336E+02  -.73741E+00
   .11625E+03   .85286E+02  -.73740E+00
   .11626E+03   .85205E+02  -.73738E+00
   .11626E+03   .85145E+02  -.73737E+00
   .11626E+03   .85044E+02  -.73735E+00
   .11626E+03   .84968E+02  -.73733E+00
   .11627E+03   .84835E+02  -.73731E+00
   .11627E+03   .84731E+02  -.73730E+00
   .11627E+03   .84650E+02  -.73730E+00
   .11627E+03   .84537E+02  -.73728E+00
   .11627E+03   .84433E+02  -.73728E+00
   .11628E+03   .84270E+02  -.73726E+00
   .11628E+03   .84119E+02  -.73726E+00
   .11628E+03   .83841E+02  -.73725E+00
   .11628E+03   .83308E+02  -.73723E+00
   .11628E+03   .82782E+02  -.73723E+00
   .11628E+03   .83030E+02  -.73722E+00
   .11628E+03   .83485E+02  -.73722E+00
   .11629E+03   .83859E+02  -.54946E+01
   .11629E+03   .84189E+02  -.92570E+00
   .11629E+03   .84439E+02  -.12853E+01
   .11629E+03   .83754E+02  -.23168E+01
   .11629E+03   .83927E+02  -.30684E+01
   .11629E+03   .84279E+02  -.30492E+01
   .11629E+03   .84567E+02  -.30303E+01
   .11629E+03   .84678E+02  -.30114E+01
   .11630E+03   .84792E+02  -.29928E+01
   .11630E+03   .84860E+02  -.29741E+01
   .11630E+03   .84936E+02  -.29695E+01
   .11630E+03   .84988E+02  -.29649E+01
   .11630E+03   .85050E+02  -.29603E+01
   .11630E+03   .85093E+02  -.29557E+01
   .11631E+03   .85142E+02  -.29535E+01
   .11631E+03   .85179E+02  -.29557E+01
   .11631E+03   .85222E+02  -.29572E+01
   .11631E+03   .85257E+02  -.29601E+01
   .11631E+03   .85306E+02  -.29635E+01
   .11631E+03   .85351E+02  -.29668E+01
   .11632E+03   .85395E+02  -.29715E+01
   .11632E+03   .85438E+02  -.29761E+01
   .11632E+03   .85520E+02  -.29821E+01
   .11632E+03   .85576E+02  -.29842E+01
   .11633E+03   .85647E+02  -.29859E+01
   .11633E+03   .85711E+02  -.29843E+01
   .11634E+03   .85769E+02  -.29820E+01
   .11634E+03   .85809E+02  -.29802E+01
   .11634E+03   .85846E+02  -.29783E+01
   .11635E+03   .85869E+02  -.29771E+01
   .11635E+03   .85923E+02  -.29746E+01
   .11636E+03   .85973E+02  -.29749E+01
   .11636E+03   .86020E+02  -.29752E+01
   .11637E+03   .86091E+02  -.29767E+01
   .11638E+03   .86149E+02  -.29780E+01
   .11638E+03   .86210E+02  -.29780E+01
   .11639E+03   .86259E+02  -.29779E+01
   .11639E+03   .86292E+02  -.29778E+01
   .11640E+03   .86324E+02  -.29776E+01
   .11641E+03   .86383E+02  -.29774E+01
   .11643E+03   .86465E+02  -.29770E+01
   .11644E+03   .86538E+02  -.29766E+01
   .11646E+03   .86605E+02  -.29760E+01
   .11647E+03   .86666E+02  -.29754E+01
   .11649E+03   .86722E+02  -.29748E+01
   .11650E+03   .86774E+02  -.29741E+01
   .11651E+03   .86807E+02  -.29738E+01
   .11652E+03   .86838E+02  -.29735E+01
   .11655E+03   .86925E+02  -.29726E+01
   .11657E+03   .86978E+02  -.29720E+01
   .11660E+03   .87051E+02  -.29710E+01
   .11662E+03   .87096E+02  -.29706E+01
   .11665E+03   .87159E+02  -.29699E+01
   .11667E+03   .87198E+02  -.29695E+01
   .11670E+03   .87254E+02  -.29689E+01
   .11673E+03   .87305E+02  -.29676E+01
   .11675E+03   .87338E+02  -.29667E+01
   .11677E+03   .87369E+02  -.29658E+01
   .11680E+03   .87413E+02  -.29645E+01
   .11682E+03   .87442E+02  -.29636E+01
   .11685E+03   .87482E+02  -.29623E+01
   .11690E+03   .87545E+02  -.29601E+01
   .11695E+03   .87602E+02  -.29584E+01
   .11700E+03   .87656E+02  -.29568E+01
   .11705E+03   .87706E+02  -.29552E+01
   .11710E+03   .87754E+02  -.29535E+01
   .11715E+03   .87799E+02  -.29515E+01
   .11720E+03   .87841E+02  -.29494E+01
   .11725E+03   .87881E+02  -.29474E+01
   .11730E+03   .87919E+02  -.29453E+01
   .11735E+03   .87955E+02  -.29432E+01
   .11740E+03   .87990E+02  -.29412E+01
   .11745E+03   .88023E+02  -.29391E+01
   .11750E+03   .88054E+02  -.29371E+01
   .11757E+03   .88096E+02  -.29345E+01
   .11765E+03   .88142E+02  -.29316E+01
   .11772E+03   .88180E+02  -.29290E+01
   .11780E+03   .88221E+02  -.29261E+01
   .11790E+03   .88269E+02  -.29224E+01
   .11800E+03   .88315E+02  -.29187E+01
   .11815E+03   .88379E+02  -.29131E+01
   .11830E+03   .88438E+02  -.29074E+01
   .11840E+03   .88476E+02  -.29037E+01
   .11850E+03   .88511E+02  -.28999E+01
   .11865E+03   .88561E+02  -.28943E+01
   .11880E+03   .88609E+02  -.28886E+01
   .11890E+03   .88639E+02  -.28849E+01
   .11900E+03   .88668E+02  -.28811E+01
   .11915E+03   .88710E+02  -.28747E+01
   .11930E+03   .88749E+02  -.28682E+01
   .11940E+03   .88774E+02  -.28639E+01
   .11950E+03   .88798E+02  -.28596E+01
   .11980E+03   .88865E+02  -.28496E+01
   .12000E+03   .88907E+02  -.28430E+01
   .12030E+03   .88966E+02  -.28338E+01
   .12050E+03   .89004E+02  -.28277E+01
   .12080E+03   .89059E+02  -.28186E+01
   .12100E+03   .89093E+02  -.28124E+01
   .12130E+03   .89142E+02  -.28019E+01
   .12150E+03   .89174E+02  -.27948E+01
   .12180E+03   .89219E+02  -.27842E+01
   .12200E+03   .89247E+02  -.27772E+01
   .12230E+03   .89288E+02  -.27662E+01
   .12250E+03   .89313E+02  -.27589E+01
   .12280E+03   .89351E+02  -.27480E+01
   .12300E+03   .89375E+02  -.27406E+01
   .12330E+03   .89409E+02  -.27294E+01
   .12350E+03   .89431E+02  -.27220E+01
   .12380E+03   .89462E+02  -.27108E+01
   .12400E+03   .89482E+02  -.27033E+01
   .12430E+03   .89511E+02  -.26931E+01
   .12450E+03   .89529E+02  -.26863E+01
   .12480E+03   .89556E+02  -.26761E+01
   .12500E+03   .89574E+02  -.26693E+01
   .12550E+03   .89615E+02  -.26538E+01
   .12600E+03   .89655E+02  -.26382E+01
   .12650E+03   .89693E+02  -.26231E+01
   .12700E+03   .89730E+02  -.26081E+01
   .12750E+03   .89764E+02  -.25930E+01
   .12800E+03   .89797E+02  -.25779E+01
   .12840E+03   .89823E+02  -.25662E+01
   .12880E+03   .89848E+02  -.25544E+01
   .12920E+03   .89872E+02  -.25426E+01
   .12950E+03   .89889E+02  -.25338E+01
   .12990E+03   .89912E+02  -.25220E+01
   .13030E+03   .89934E+02  -.25102E+01
   .13070E+03   .89955E+02  -.24983E+01
   .13100E+03   .89971E+02  -.24895E+01
   .13150E+03   .89996E+02  -.24750E+01
   .13200E+03   .90020E+02  -.24604E+01
   .13250E+03   .90043E+02  -.24459E+01
   .13300E+03   .90065E+02  -.24314E+01
   .13350E+03   .90087E+02  -.24171E+01
   .13400E+03   .90107E+02  -.24027E+01
   .13450E+03   .90127E+02  -.23884E+01
   .13500E+03   .90146E+02  -.23740E+01
   .13540E+03   .90161E+02  -.23629E+01
   .13580E+03   .90175E+02  -.23519E+01
   .13650E+03   .90200E+02  -.23325E+01
   .13730E+03   .90226E+02  -.23110E+01
   .13800E+03   .90248E+02  -.22921E+01
   .13850E+03   .90263E+02  -.22791E+01
   .13900E+03   .90277E+02  -.22661E+01
   .13950E+03   .90291E+02  -.22531E+01
   .14000E+03   .90305E+02  -.22401E+01
   .14050E+03   .90318E+02  -.22278E+01
   .14100E+03   .90331E+02  -.22155E+01
   .14150E+03   .90344E+02  -.22032E+01
   .14200E+03   .90356E+02  -.21909E+01
   .14250E+03   .90368E+02  -.21791E+01
   .14300E+03   .90379E+02  -.21672E+01
   .14350E+03   .90391E+02  -.21554E+01
   .14400E+03   .90402E+02  -.21435E+01
   .14470E+03   .90416E+02  -.21275E+01
   .14540E+03   .90431E+02  -.21114E+01
   .14570E+03   .90437E+02  -.21047E+01
   .14600E+03   .90443E+02  -.20979E+01
   .14670E+03   .90456E+02  -.20824E+01
   .14730E+03   .90467E+02  -.20693E+01
   .14800E+03   .90480E+02  -.20541E+01
   .14850E+03   .90489E+02  -.20434E+01
   .14900E+03   .90498E+02  -.20327E+01
   .14950E+03   .90506E+02  -.20222E+01
   .14980E+03   .90511E+02  -.20159E+01
   .15000E+03   .90514E+02  -.20117E+01
   .15100E+03   .90530E+02  -.19910E+01
   .15200E+03   .90546E+02  -.19703E+01
   .15300E+03   .90560E+02  -.19503E+01
   .15400E+03   .90574E+02  -.19303E+01
   .15500E+03   .90587E+02  -.19109E+01
   .15600E+03   .90599E+02  -.18916E+01
   .15700E+03   .90611E+02  -.18728E+01
   .15800E+03   .90623E+02  -.18541E+01
   .15900E+03   .90634E+02  -.18360E+01
   .16000E+03   .90644E+02  -.18179E+01
   .16100E+03   .90654E+02  -.18003E+01
   .16200E+03   .90664E+02  -.17828E+01
   .16280E+03   .90671E+02  -.17693E+01
   .16350E+03   .90678E+02  -.17575E+01
   .16430E+03   .90685E+02  -.17440E+01
   .16500E+03   .90691E+02  -.17322E+01
   .16600E+03   .90699E+02  -.17159E+01
   .16700E+03   .90707E+02  -.16997E+01
   .16800E+03   .90714E+02  -.16840E+01
   .16900E+03   .90721E+02  -.16682E+01
   .17000E+03   .90728E+02  -.16530E+01
   .17100E+03   .90735E+02  -.16377E+01
   .17200E+03   .90741E+02  -.16229E+01
   .17300E+03   .90747E+02  -.16081E+01
   .17400E+03   .90753E+02  -.15937E+01
   .17500E+03   .90759E+02  -.15793E+01
   .17600E+03   .90764E+02  -.15654E+01
   .17700E+03   .90769E+02  -.15514E+01
   .17850E+03   .90777E+02  -.15312E+01
   .18000E+03   .90784E+02  -.15110E+01
   .18150E+03   .90790E+02  -.14918E+01
   .18300E+03   .90796E+02  -.14725E+01
   .18400E+03   .90800E+02  -.14601E+01
   .18500E+03   .90804E+02  -.14477E+01
   .18650E+03   .90809E+02  -.14297E+01
   .18800E+03   .90814E+02  -.14117E+01
   .19000E+03   .90821E+02  -.13886E+01
   .19300E+03   .90829E+02  -.13550E+01
   .19500E+03   .90834E+02  -.13333E+01
   .19800E+03   .90841E+02  -.13019E+01
   .20000E+03   .90845E+02  -.12816E+01
