    E(keV)         f1           f2     
   .10000E+01   .51210E+02  -.44282E+02
   .10050E+01   .51522E+02  -.44137E+02
   .10100E+01   .51825E+02  -.43993E+02
   .10200E+01   .52413E+02  -.43704E+02
   .10300E+01   .52974E+02  -.43407E+02
   .10410E+01   .53555E+02  -.43080E+02
   .10460E+01   .53811E+02  -.42935E+02
   .10504E+01   .54030E+02  -.42808E+02
   .10600E+01   .54499E+02  -.42526E+02
   .10700E+01   .54962E+02  -.42234E+02
   .10800E+01   .55403E+02  -.41941E+02
   .10900E+01   .55814E+02  -.41649E+02
   .11050E+01   .56390E+02  -.41210E+02
   .11200E+01   .56899E+02  -.40771E+02
   .11280E+01   .57143E+02  -.40537E+02
   .11350E+01   .57339E+02  -.40333E+02
   .11430E+01   .57532E+02  -.40099E+02
   .11500E+01   .57671E+02  -.39894E+02
   .11580E+01   .57776E+02  -.39660E+02
   .11660E+01   .57792E+02  -.39426E+02
   .11700E+01   .57746E+02  -.39309E+02
   .11740E+01   .57635E+02  -.39192E+02
   .11780E+01   .57402E+02  -.39075E+02
   .11810E+01   .56162E+02  -.38987E+02
   .11810E+01   .57050E+02  -.42437E+02
   .11810E+01   .57938E+02  -.38986E+02
   .11818E+01   .56881E+02  -.38963E+02
   .11826E+01   .52250E+02  -.38941E+02
   .11826E+01   .56907E+02  -.56992E+02
   .11826E+01   .61565E+02  -.38940E+02
   .11840E+01   .56687E+02  -.38900E+02
   .11862E+01   .55741E+02  -.38836E+02
   .11880E+01   .53924E+02  -.38785E+02
   .11898E+01   .32693E+01  -.38734E+02
   .11898E+01   .47216E+02  -.21096E+03
   .11898E+01   .91147E+02  -.38732E+02
   .11902E+01   .41172E+02  -.38723E+02
   .11905E+01  -.17762E+03  -.38713E+02
   .11905E+01   .58781E+02  -.96024E+03
   .11905E+01   .29518E+03  -.38711E+02
   .11910E+01   .72948E+02  -.38698E+02
   .11914E+01   .64937E+02  -.38686E+02
   .11919E+01   .61474E+02  -.38673E+02
   .11924E+01   .46210E+02  -.38659E+02
   .11924E+01   .60272E+02  -.93864E+02
   .11924E+01   .74334E+02  -.38658E+02
   .11927E+01   .59842E+02  -.38649E+02
   .11931E+01   .42396E+02  -.38639E+02
   .11931E+01   .61655E+02  -.95603E+02
   .11931E+01   .76118E+02  -.38638E+02
   .11932E+01   .61195E+02  -.38634E+02
   .11934E+01   .55275E+02  -.38631E+02
   .11934E+01   .60055E+02  -.58236E+02
   .11934E+01   .64842E+02  -.38630E+02
   .11935E+01   .59433E+02  -.38626E+02
   .11936E+01   .52314E+02  -.38623E+02
   .11937E+01   .59643E+02  -.62870E+02
   .11937E+01   .65549E+02  -.38622E+02
   .11937E+01   .60834E+02  -.38620E+02
   .11938E+01   .58089E+02  -.38619E+02
   .11938E+01   .59909E+02  -.47868E+02
   .11938E+01   .61778E+02  -.38618E+02
   .11939E+01   .59100E+02  -.38617E+02
   .11939E+01   .56108E+02  -.38616E+02
   .11939E+01   .58870E+02  -.51254E+02
   .11940E+01   .61534E+02  -.38614E+02
   .11940E+01   .61266E+02  -.38614E+02
   .11940E+01   .59308E+02  -.38613E+02
   .11940E+01   .59615E+02  -.43710E+02
   .11940E+01   .60057E+02  -.38612E+02
   .11940E+01   .58769E+02  -.38612E+02
   .11941E+01   .57500E+02  -.38611E+02
   .11941E+01   .58582E+02  -.46043E+02
   .11941E+01   .59756E+02  -.38610E+02
   .11941E+01   .59435E+02  -.41716E+02
   .11941E+01   .58743E+02  -.38609E+02
   .11941E+01   .57879E+02  -.38609E+02
   .11942E+01   .57938E+02  -.40866E+02
   .11942E+01   .58794E+02  -.45381E+02
   .11942E+01   .59130E+02  -.41994E+02
   .11942E+01   .59261E+02  -.38607E+02
   .11942E+01   .57995E+02  -.38607E+02
   .11942E+01   .57354E+02  -.38798E+02
   .11942E+01   .57306E+02  -.43992E+02
   .11942E+01   .57274E+02  -.40015E+02
   .11943E+01   .57392E+02  -.40606E+02
   .11943E+01   .58682E+02  -.46762E+02
   .11943E+01   .59695E+02  -.41062E+02
   .11943E+01   .59917E+02  -.46062E+02
   .11944E+01   .60688E+02  -.41061E+02
   .11944E+01   .60205E+02  -.41060E+02
   .11944E+01   .60771E+02  -.44877E+02
   .11944E+01   .61543E+02  -.41059E+02
   .11945E+01   .60472E+02  -.41057E+02
   .11945E+01   .60203E+02  -.41056E+02
   .11946E+01   .60049E+02  -.41055E+02
   .11946E+01   .59926E+02  -.41053E+02
   .11947E+01   .59782E+02  -.41050E+02
   .11948E+01   .59697E+02  -.41047E+02
   .11949E+01   .59638E+02  -.41044E+02
   .11950E+01   .59595E+02  -.41042E+02
   .11952E+01   .59534E+02  -.41036E+02
   .11954E+01   .59492E+02  -.41030E+02
   .11956E+01   .59461E+02  -.41024E+02
   .11960E+01   .59419E+02  -.41012E+02
   .11965E+01   .59388E+02  -.40997E+02
   .11970E+01   .59373E+02  -.40982E+02
   .11975E+01   .59368E+02  -.40967E+02
   .11980E+01   .59370E+02  -.40953E+02
   .11988E+01   .59384E+02  -.40929E+02
   .11995E+01   .59404E+02  -.40908E+02
   .12010E+01   .59462E+02  -.40864E+02
   .12025E+01   .59532E+02  -.40819E+02
   .12040E+01   .59608E+02  -.40775E+02
   .12055E+01   .59688E+02  -.40730E+02
   .12070E+01   .59769E+02  -.40686E+02
   .12110E+01   .59987E+02  -.40568E+02
   .12140E+01   .60148E+02  -.40479E+02
   .12170E+01   .60305E+02  -.40390E+02
   .12200E+01   .60458E+02  -.40301E+02
   .12250E+01   .60703E+02  -.40160E+02
   .12300E+01   .60940E+02  -.40018E+02
   .12350E+01   .61167E+02  -.39876E+02
   .12400E+01   .61386E+02  -.39735E+02
   .12470E+01   .61680E+02  -.39537E+02
   .12540E+01   .61962E+02  -.39339E+02
   .12670E+01   .62460E+02  -.38988E+02
   .12800E+01   .62929E+02  -.38637E+02
   .12900E+01   .63270E+02  -.38368E+02
   .13000E+01   .63599E+02  -.38098E+02
   .13200E+01   .64217E+02  -.37576E+02
   .13377E+01   .64725E+02  -.37115E+02
   .13500E+01   .65063E+02  -.36803E+02
   .13700E+01   .65578E+02  -.36298E+02
   .13900E+01   .66062E+02  -.35806E+02
   .14100E+01   .66506E+02  -.35314E+02
   .14300E+01   .66918E+02  -.34836E+02
   .14500E+01   .67279E+02  -.34357E+02
   .14570E+01   .67392E+02  -.34194E+02
   .14650E+01   .67507E+02  -.34008E+02
   .14730E+01   .67592E+02  -.33821E+02
   .14809E+01   .66029E+02  -.33636E+02
   .14810E+01   .67617E+02  -.38729E+02
   .14810E+01   .69205E+02  -.33635E+02
   .14854E+01   .67518E+02  -.33535E+02
   .14897E+01   .33685E+02  -.33436E+02
   .14897E+01   .67685E+02  -.14308E+03
   .14898E+01   .10168E+03  -.33435E+02
   .14910E+01   .68409E+02  -.33406E+02
   .14923E+01   .64046E+02  -.33377E+02
   .14923E+01   .67923E+02  -.45942E+02
   .14924E+01   .71800E+02  -.33376E+02
   .14927E+01   .68115E+02  -.33369E+02
   .14930E+01   .66584E+02  -.33362E+02
   .14930E+01   .67843E+02  -.37542E+02
   .14930E+01   .69099E+02  -.33361E+02
   .14932E+01   .67867E+02  -.33358E+02
   .14933E+01   .66511E+02  -.33355E+02
   .14933E+01   .67841E+02  -.37819E+02
   .14934E+01   .69170E+02  -.33354E+02
   .14934E+01   .68155E+02  -.33352E+02
   .14934E+01   .68016E+02  -.33352E+02
   .14935E+01   .67837E+02  -.33351E+02
   .14935E+01   .67754E+02  -.33351E+02
   .14935E+01   .67618E+02  -.33350E+02
   .14935E+01   .67466E+02  -.33415E+02
   .14935E+01   .67274E+02  -.33608E+02
   .14936E+01   .67039E+02  -.33739E+02
   .14936E+01   .67237E+02  -.33738E+02
   .14936E+01   .67648E+02  -.35578E+02
   .14936E+01   .68182E+02  -.33737E+02
   .14937E+01   .67828E+02  -.33737E+02
   .14937E+01   .67333E+02  -.33736E+02
   .14937E+01   .67924E+02  -.35842E+02
   .14938E+01   .68518E+02  -.33735E+02
   .14938E+01   .68063E+02  -.33734E+02
   .14938E+01   .67729E+02  -.33733E+02
   .14939E+01   .67916E+02  -.34702E+02
   .14939E+01   .68039E+02  -.33732E+02
   .14939E+01   .67884E+02  -.33731E+02
   .14939E+01   .68081E+02  -.34892E+02
   .14940E+01   .68318E+02  -.33730E+02
   .14940E+01   .68082E+02  -.33730E+02
   .14940E+01   .67831E+02  -.33729E+02
   .14940E+01   .68087E+02  -.35009E+02
   .14941E+01   .68371E+02  -.33728E+02
   .14941E+01   .68285E+02  -.33728E+02
   .14941E+01   .68073E+02  -.33728E+02
   .14941E+01   .68178E+02  -.34556E+02
   .14942E+01   .68204E+02  -.33726E+02
   .14942E+01   .68293E+02  -.34698E+02
   .14942E+01   .68369E+02  -.33725E+02
   .14943E+01   .68388E+02  -.34509E+02
   .14943E+01   .68555E+02  -.33723E+02
   .14949E+01   .68149E+02  -.33711E+02
   .14956E+01   .68118E+02  -.33696E+02
   .14963E+01   .68115E+02  -.33682E+02
   .14970E+01   .68121E+02  -.33667E+02
   .14985E+01   .68144E+02  -.33636E+02
   .15000E+01   .68175E+02  -.33604E+02
   .15050E+01   .68286E+02  -.33491E+02
   .15100E+01   .68393E+02  -.33378E+02
   .15150E+01   .68496E+02  -.33265E+02
   .15200E+01   .68594E+02  -.33152E+02
   .15300E+01   .68782E+02  -.32926E+02
   .15400E+01   .68957E+02  -.32700E+02
   .15600E+01   .69281E+02  -.32271E+02
   .15789E+01   .69556E+02  -.31866E+02
   .16000E+01   .69831E+02  -.31436E+02
   .16100E+01   .69947E+02  -.31232E+02
   .16200E+01   .70053E+02  -.31029E+02
   .16300E+01   .70144E+02  -.30836E+02
   .16400E+01   .70214E+02  -.30642E+02
   .16460E+01   .70236E+02  -.30527E+02
   .16520E+01   .70231E+02  -.30411E+02
   .16550E+01   .70208E+02  -.30353E+02
   .16580E+01   .70155E+02  -.30295E+02
   .16610E+01   .70016E+02  -.30237E+02
   .16635E+01   .69321E+02  -.30189E+02
   .16635E+01   .69594E+02  -.31215E+02
   .16635E+01   .69868E+02  -.30188E+02
   .16639E+01   .69415E+02  -.30182E+02
   .16642E+01   .68808E+02  -.30175E+02
   .16642E+01   .69025E+02  -.31129E+02
   .16643E+01   .69238E+02  -.30174E+02
   .16645E+01   .68030E+02  -.30169E+02
   .16648E+01   .54147E+02  -.30163E+02
   .16649E+01   .69830E+02  -.86542E+02
   .16649E+01   .85512E+02  -.30162E+02
   .16651E+01   .71890E+02  -.30158E+02
   .16654E+01   .68753E+02  -.30153E+02
   .16654E+01   .71035E+02  -.38619E+02
   .16654E+01   .73324E+02  -.30152E+02
   .16658E+01   .70676E+02  -.30145E+02
   .16661E+01   .70310E+02  -.30140E+02
   .16664E+01   .69769E+02  -.30134E+02
   .16667E+01   .66109E+02  -.30129E+02
   .16667E+01   .69895E+02  -.43950E+02
   .16667E+01   .73663E+02  -.30128E+02
   .16668E+01   .71819E+02  -.30127E+02
   .16668E+01   .70496E+02  -.30126E+02
   .16669E+01   .70955E+02  -.32804E+02
   .16669E+01   .71497E+02  -.30125E+02
   .16670E+01   .70543E+02  -.30123E+02
   .16670E+01   .70310E+02  -.30122E+02
   .16671E+01   .70097E+02  -.30121E+02
   .16672E+01   .69829E+02  -.30120E+02
   .16672E+01   .69720E+02  -.30120E+02
   .16672E+01   .69519E+02  -.30119E+02
   .16672E+01   .69331E+02  -.30119E+02
   .16673E+01   .68912E+02  -.30118E+02
   .16673E+01   .68528E+02  -.30285E+02
   .16673E+01   .67894E+02  -.30501E+02
   .16673E+01   .68441E+02  -.30623E+02
   .16673E+01   .69500E+02  -.36367E+02
   .16674E+01   .71056E+02  -.30707E+02
   .16674E+01   .70891E+02  -.31932E+02
   .16674E+01   .70894E+02  -.30705E+02
   .16675E+01   .70180E+02  -.30704E+02
   .16676E+01   .69251E+02  -.30702E+02
   .16676E+01   .70402E+02  -.34211E+02
   .16677E+01   .71294E+02  -.30701E+02
   .16677E+01   .70567E+02  -.30700E+02
   .16678E+01   .69917E+02  -.30699E+02
   .16678E+01   .70364E+02  -.32738E+02
   .16678E+01   .70852E+02  -.30698E+02
   .16678E+01   .70481E+02  -.30697E+02
   .16679E+01   .70155E+02  -.30697E+02
   .16679E+01   .70560E+02  -.32693E+02
   .16679E+01   .70961E+02  -.30695E+02
   .16679E+01   .70785E+02  -.30695E+02
   .16680E+01   .70713E+02  -.31469E+02
   .16680E+01   .70623E+02  -.30694E+02
   .16680E+01   .70729E+02  -.30694E+02
   .16680E+01   .70845E+02  -.31988E+02
   .16681E+01   .71074E+02  -.30693E+02
   .16681E+01   .71146E+02  -.30693E+02
   .16681E+01   .70988E+02  -.30961E+02
   .16681E+01   .70957E+02  -.30691E+02
   .16689E+01   .70539E+02  -.30676E+02
   .16696E+01   .70514E+02  -.30663E+02
   .16703E+01   .70515E+02  -.30649E+02
   .16710E+01   .70526E+02  -.30635E+02
   .16725E+01   .70558E+02  -.30606E+02
   .16740E+01   .70594E+02  -.30576E+02
   .16770E+01   .70666E+02  -.30517E+02
   .16800E+01   .70735E+02  -.30459E+02
   .16850E+01   .70840E+02  -.30361E+02
   .16900E+01   .70937E+02  -.30263E+02
   .17000E+01   .71112E+02  -.30066E+02
   .17070E+01   .71224E+02  -.29934E+02
   .17150E+01   .71345E+02  -.29783E+02
   .17300E+01   .71554E+02  -.29500E+02
   .17500E+01   .71809E+02  -.29138E+02
   .17700E+01   .72043E+02  -.28776E+02
   .17850E+01   .72207E+02  -.28516E+02
   .18000E+01   .72363E+02  -.28256E+02
   .18200E+01   .72560E+02  -.27922E+02
   .18500E+01   .72833E+02  -.27422E+02
   .18700E+01   .73002E+02  -.27106E+02
   .19000E+01   .73241E+02  -.26633E+02
   .19200E+01   .73390E+02  -.26332E+02
   .19500E+01   .73600E+02  -.25879E+02
   .19700E+01   .73731E+02  -.25591E+02
   .20000E+01   .73916E+02  -.25158E+02
   .20300E+01   .74086E+02  -.24736E+02
   .20700E+01   .74289E+02  -.24192E+02
   .21100E+01   .74469E+02  -.23663E+02
   .21500E+01   .74627E+02  -.23155E+02
   .21800E+01   .74733E+02  -.22781E+02
   .22200E+01   .74855E+02  -.22300E+02
   .22600E+01   .74957E+02  -.21833E+02
   .23000E+01   .75042E+02  -.21384E+02
   .23500E+01   .75126E+02  -.20843E+02
   .24000E+01   .75187E+02  -.20327E+02
   .24500E+01   .75227E+02  -.19831E+02
   .25000E+01   .75249E+02  -.19357E+02
   .25300E+01   .75253E+02  -.19078E+02
   .25600E+01   .75249E+02  -.18807E+02
   .26210E+01   .75219E+02  -.18276E+02
   .26220E+01   .75218E+02  -.18268E+02
   .26230E+01   .75218E+02  -.18260E+02
   .26800E+01   .75169E+02  -.17785E+02
   .27300E+01   .75103E+02  -.17383E+02
   .27800E+01   .75020E+02  -.16998E+02
   .28347E+01   .74910E+02  -.16592E+02
   .28800E+01   .74800E+02  -.16267E+02
   .29200E+01   .74692E+02  -.15988E+02
   .29600E+01   .74571E+02  -.15717E+02
   .29800E+01   .74506E+02  -.15585E+02
   .30000E+01   .74438E+02  -.15455E+02
   .30300E+01   .74330E+02  -.15263E+02
   .30700E+01   .74172E+02  -.15008E+02
   .31100E+01   .73999E+02  -.14766E+02
   .31500E+01   .73812E+02  -.14525E+02
   .31800E+01   .73660E+02  -.14352E+02
   .32200E+01   .73443E+02  -.14121E+02
   .32600E+01   .73207E+02  -.13902E+02
   .33000E+01   .72951E+02  -.13684E+02
   .33200E+01   .72815E+02  -.13578E+02
   .33500E+01   .72600E+02  -.13420E+02
   .34000E+01   .72208E+02  -.13165E+02
   .34500E+01   .71771E+02  -.12919E+02
   .34700E+01   .71582E+02  -.12824E+02
   .35000E+01   .71282E+02  -.12681E+02
   .35300E+01   .70958E+02  -.12542E+02
   .35700E+01   .70484E+02  -.12356E+02
   .35900E+01   .70227E+02  -.12267E+02
   .36100E+01   .69954E+02  -.12179E+02
   .36300E+01   .69665E+02  -.12090E+02
   .36500E+01   .69357E+02  -.12002E+02
   .36650E+01   .69113E+02  -.11938E+02
   .36800E+01   .68856E+02  -.11875E+02
   .37000E+01   .68491E+02  -.11791E+02
   .37200E+01   .68097E+02  -.11706E+02
   .37400E+01   .67671E+02  -.11626E+02
   .37600E+01   .67207E+02  -.11545E+02
   .37800E+01   .66698E+02  -.11465E+02
   .38000E+01   .66134E+02  -.11384E+02
   .38100E+01   .65828E+02  -.11345E+02
   .38200E+01   .65503E+02  -.11306E+02
   .38350E+01   .64976E+02  -.11247E+02
   .38500E+01   .64392E+02  -.11189E+02
   .38600E+01   .63964E+02  -.11151E+02
   .38700E+01   .63499E+02  -.11113E+02
   .38850E+01   .62718E+02  -.11056E+02
   .39000E+01   .61807E+02  -.10999E+02
   .39100E+01   .61102E+02  -.10962E+02
   .39150E+01   .60713E+02  -.10944E+02
   .39200E+01   .60295E+02  -.10925E+02
   .39280E+01   .59552E+02  -.10896E+02
   .39350E+01   .58810E+02  -.10870E+02
   .39420E+01   .57956E+02  -.10844E+02
   .39500E+01   .56793E+02  -.10815E+02
   .39550E+01   .55930E+02  -.10797E+02
   .39600E+01   .54921E+02  -.10779E+02
   .39650E+01   .53715E+02  -.10761E+02
   .39700E+01   .52231E+02  -.10743E+02
   .39740E+01   .50752E+02  -.10729E+02
   .39780E+01   .48887E+02  -.10715E+02
   .39820E+01   .46426E+02  -.10700E+02
   .39850E+01   .43955E+02  -.10690E+02
   .39890E+01   .39182E+02  -.10675E+02
   .39910E+01   .35688E+02  -.10668E+02
   .39930E+01   .30855E+02  -.10661E+02
   .39950E+01   .23655E+02  -.10654E+02
   .39970E+01   .11598E+02  -.10647E+02
   .39985E+01  -.48737E+01  -.10641E+02
   .40000E+01  -.40611E+02  -.10636E+02
   .40002E+01  -.46838E+02  -.10635E+02
   .40003E+01  -.54062E+02  -.10635E+02
   .40006E+01  -.73119E+02  -.10634E+02
   .40012E+01  -.24718E+03  -.10632E+02
   .40013E+01  -.99920E+02  -.50315E+03
   .40013E+01   .46544E+02  -.10631E+02
   .40020E+01  -.23982E+03  -.10629E+02
   .40024E+01  -.49269E+03  -.10627E+02
   .40028E+01  -.29332E+04  -.10626E+02
   .40028E+01  -.14348E+04  -.47809E+04
   .40028E+01   .63550E+02  -.95511E+04
   .40029E+01   .30604E+04  -.10625E+02
   .40050E+01   .17232E+03  -.10618E+02
   .40059E+01   .13788E+03  -.10615E+02
   .40068E+01   .11905E+03  -.10612E+02
   .40079E+01   .10463E+03  -.10608E+02
   .40090E+01   .95261E+02  -.10604E+02
   .40098E+01   .90174E+02  -.10601E+02
   .40107E+01   .85520E+02  -.10598E+02
   .40107E+01   .85305E+02  -.11117E+02
   .40108E+01   .85095E+02  -.10597E+02
   .40113E+01   .82668E+02  -.10595E+02
   .40118E+01   .78451E+02  -.10594E+02
   .40119E+01   .80756E+02  -.18892E+02
   .40120E+01   .83065E+02  -.10593E+02
   .40127E+01   .78482E+02  -.10591E+02
   .40133E+01   .75511E+02  -.10589E+02
   .40134E+01   .76072E+02  -.13245E+02
   .40135E+01   .76628E+02  -.10588E+02
   .40136E+01   .75480E+02  -.10587E+02
   .40138E+01   .74402E+02  -.10587E+02
   .40139E+01   .74721E+02  -.12582E+02
   .40139E+01   .75025E+02  -.10586E+02
   .40140E+01   .74405E+02  -.10586E+02
   .40141E+01   .73738E+02  -.10586E+02
   .40142E+01   .73938E+02  -.12360E+02
   .40143E+01   .74097E+02  -.10585E+02
   .40143E+01   .73885E+02  -.10585E+02
   .40143E+01   .73603E+02  -.10585E+02
   .40144E+01   .73568E+02  -.11901E+02
   .40145E+01   .73548E+02  -.10584E+02
   .40145E+01   .73593E+02  -.10584E+02
   .40145E+01   .73614E+02  -.10584E+02
   .40145E+01   .73418E+02  -.11384E+02
   .40146E+01   .73301E+02  -.10584E+02
   .40148E+01   .72424E+02  -.10583E+02
   .40149E+01   .72049E+02  -.10583E+02
   .40150E+01   .71670E+02  -.10583E+02
   .40151E+01   .71384E+02  -.10582E+02
   .40152E+01   .70953E+02  -.10582E+02
   .40152E+01   .70588E+02  -.10800E+02
   .40153E+01   .70365E+02  -.11160E+02
   .40153E+01   .70340E+02  -.11351E+02
   .40154E+01   .70317E+02  -.11373E+02
   .40155E+01   .70257E+02  -.11396E+02
   .40155E+01   .70199E+02  -.11419E+02
   .40156E+01   .70019E+02  -.11465E+02
   .40157E+01   .69823E+02  -.11510E+02
   .40159E+01   .69515E+02  -.11582E+02
   .40160E+01   .69205E+02  -.11660E+02
   .40163E+01   .68584E+02  -.11820E+02
   .40165E+01   .68183E+02  -.11934E+02
   .40167E+01   .67785E+02  -.12053E+02
   .40170E+01   .67205E+02  -.12240E+02
   .40172E+01   .66835E+02  -.12374E+02
   .40175E+01   .66293E+02  -.12578E+02
   .40178E+01   .65767E+02  -.12797E+02
   .40180E+01   .65425E+02  -.12946E+02
   .40182E+01   .65101E+02  -.13101E+02
   .40185E+01   .64626E+02  -.13339E+02
   .40190E+01   .63886E+02  -.13756E+02
   .40195E+01   .63208E+02  -.14194E+02
   .40200E+01   .62589E+02  -.14646E+02
   .40205E+01   .62030E+02  -.15113E+02
   .40210E+01   .61529E+02  -.15584E+02
   .40215E+01   .61087E+02  -.16063E+02
   .40220E+01   .60702E+02  -.16543E+02
   .40225E+01   .60369E+02  -.17013E+02
   .40230E+01   .60086E+02  -.17477E+02
   .40235E+01   .59851E+02  -.17928E+02
   .40240E+01   .59660E+02  -.18363E+02
   .40245E+01   .59509E+02  -.18779E+02
   .40250E+01   .59393E+02  -.19178E+02
   .40255E+01   .59316E+02  -.19551E+02
   .40260E+01   .59250E+02  -.19902E+02
   .40265E+01   .59222E+02  -.20233E+02
   .40270E+01   .59205E+02  -.20535E+02
   .40275E+01   .59210E+02  -.20818E+02
   .40280E+01   .59224E+02  -.21082E+02
   .40285E+01   .59251E+02  -.21319E+02
   .40290E+01   .59286E+02  -.21538E+02
   .40295E+01   .59328E+02  -.21741E+02
   .40300E+01   .59376E+02  -.21919E+02
   .40307E+01   .59442E+02  -.22150E+02
   .40315E+01   .59531E+02  -.22380E+02
   .40322E+01   .59598E+02  -.22554E+02
   .40330E+01   .59687E+02  -.22729E+02
   .40335E+01   .59734E+02  -.22829E+02
   .40340E+01   .59785E+02  -.22921E+02
   .40350E+01   .59878E+02  -.23080E+02
   .40365E+01   .59996E+02  -.23279E+02
   .40380E+01   .60103E+02  -.23451E+02
   .40390E+01   .60169E+02  -.23553E+02
   .40400E+01   .60230E+02  -.23649E+02
   .40430E+01   .60401E+02  -.23894E+02
   .40450E+01   .60513E+02  -.24040E+02
   .40470E+01   .60629E+02  -.24173E+02
   .40500E+01   .60820E+02  -.24348E+02
   .40530E+01   .61015E+02  -.24481E+02
   .40550E+01   .61152E+02  -.24552E+02
   .40580E+01   .61356E+02  -.24621E+02
   .40600E+01   .61489E+02  -.24647E+02
   .40630E+01   .61674E+02  -.24667E+02
   .40650E+01   .61789E+02  -.24660E+02
   .40670E+01   .61896E+02  -.24646E+02
   .40700E+01   .62034E+02  -.24616E+02
   .40720E+01   .62115E+02  -.24587E+02
   .40740E+01   .62186E+02  -.24559E+02
   .40780E+01   .62305E+02  -.24503E+02
   .40820E+01   .62403E+02  -.24452E+02
   .40860E+01   .62479E+02  -.24401E+02
   .40900E+01   .62545E+02  -.24358E+02
   .40930E+01   .62584E+02  -.24326E+02
   .41000E+01   .62665E+02  -.24267E+02
   .41050E+01   .62707E+02  -.24213E+02
   .41090E+01   .62726E+02  -.24171E+02
   .41140E+01   .62733E+02  -.24118E+02
   .41190E+01   .62722E+02  -.24065E+02
   .41240E+01   .62691E+02  -.24016E+02
   .41290E+01   .62640E+02  -.23967E+02
   .41350E+01   .62549E+02  -.23909E+02
   .41400E+01   .62448E+02  -.23860E+02
   .41480E+01   .62229E+02  -.23782E+02
   .41550E+01   .61968E+02  -.23713E+02
   .41630E+01   .61569E+02  -.23635E+02
   .41700E+01   .61103E+02  -.23567E+02
   .41780E+01   .60382E+02  -.23489E+02
   .41850E+01   .59507E+02  -.23420E+02
   .41890E+01   .58855E+02  -.23381E+02
   .41930E+01   .58044E+02  -.23342E+02
   .41970E+01   .57005E+02  -.23303E+02
   .42000E+01   .56010E+02  -.23274E+02
   .42030E+01   .54746E+02  -.23244E+02
   .42060E+01   .53076E+02  -.23215E+02
   .42090E+01   .50758E+02  -.23186E+02
   .42120E+01   .47294E+02  -.23157E+02
   .42150E+01   .41482E+02  -.23127E+02
   .42180E+01   .29494E+02  -.23098E+02
   .42210E+01  -.11155E+02  -.23069E+02
   .42234E+01  -.19454E+04  -.23046E+02
   .42234E+01  -.92729E+03  -.37124E+04
   .42235E+01   .62003E+02  -.66640E+04
   .42235E+01   .20694E+04  -.23044E+02
   .42260E+01   .13279E+03  -.23021E+02
   .42278E+01   .10270E+03  -.23005E+02
   .42289E+01   .94371E+02  -.22995E+02
   .42300E+01   .88551E+02  -.22985E+02
   .42311E+01   .84292E+02  -.22975E+02
   .42321E+01   .81066E+02  -.22965E+02
   .42322E+01   .80921E+02  -.23319E+02
   .42323E+01   .80778E+02  -.22964E+02
   .42329E+01   .79020E+02  -.22958E+02
   .42335E+01   .74592E+02  -.22953E+02
   .42336E+01   .77929E+02  -.34609E+02
   .42337E+01   .81267E+02  -.22951E+02
   .42339E+01   .78510E+02  -.22950E+02
   .42340E+01   .77535E+02  -.22948E+02
   .42341E+01   .77444E+02  -.23628E+02
   .42342E+01   .77387E+02  -.22947E+02
   .42348E+01   .75834E+02  -.22941E+02
   .42354E+01   .73878E+02  -.22936E+02
   .42354E+01   .74634E+02  -.26030E+02
   .42355E+01   .75412E+02  -.22934E+02
   .42357E+01   .74279E+02  -.22933E+02
   .42359E+01   .73342E+02  -.22931E+02
   .42360E+01   .73650E+02  -.24636E+02
   .42361E+01   .73985E+02  -.22929E+02
   .42362E+01   .73476E+02  -.22928E+02
   .42363E+01   .73049E+02  -.22928E+02
   .42364E+01   .73190E+02  -.24190E+02
   .42364E+01   .73276E+02  -.22926E+02
   .42365E+01   .73123E+02  -.22926E+02
   .42365E+01   .72960E+02  -.22926E+02
   .42366E+01   .72935E+02  -.23946E+02
   .42366E+01   .72937E+02  -.22924E+02
   .42366E+01   .72981E+02  -.22924E+02
   .42366E+01   .72991E+02  -.22924E+02
   .42367E+01   .72789E+02  -.23270E+02
   .42368E+01   .72481E+02  -.22949E+02
   .42369E+01   .72315E+02  -.23165E+02
   .42369E+01   .72179E+02  -.23410E+02
   .42370E+01   .72065E+02  -.23487E+02
   .42371E+01   .71962E+02  -.23508E+02
   .42372E+01   .71869E+02  -.23525E+02
   .42372E+01   .71767E+02  -.23545E+02
   .42374E+01   .71587E+02  -.23586E+02
   .42377E+01   .71197E+02  -.23672E+02
   .42380E+01   .70813E+02  -.23768E+02
   .42385E+01   .70193E+02  -.23944E+02
   .42390E+01   .69609E+02  -.24143E+02
   .42395E+01   .69065E+02  -.24364E+02
   .42400E+01   .68547E+02  -.24600E+02
   .42404E+01   .68169E+02  -.24808E+02
   .42408E+01   .67804E+02  -.25017E+02
   .42415E+01   .67230E+02  -.25414E+02
   .42422E+01   .66731E+02  -.25831E+02
   .42430E+01   .66253E+02  -.26323E+02
   .42435E+01   .65996E+02  -.26634E+02
   .42440E+01   .65779E+02  -.26944E+02
   .42445E+01   .65593E+02  -.27247E+02
   .42450E+01   .65439E+02  -.27549E+02
   .42455E+01   .65318E+02  -.27833E+02
   .42460E+01   .65223E+02  -.28116E+02
   .42470E+01   .65104E+02  -.28633E+02
   .42478E+01   .65059E+02  -.29003E+02
   .42485E+01   .65054E+02  -.29299E+02
   .42492E+01   .65078E+02  -.29561E+02
   .42496E+01   .65096E+02  -.29699E+02
   .42500E+01   .65117E+02  -.29828E+02
   .42508E+01   .65170E+02  -.30060E+02
   .42515E+01   .65225E+02  -.30237E+02
   .42523E+01   .65298E+02  -.30414E+02
   .42530E+01   .65370E+02  -.30549E+02
   .42540E+01   .65463E+02  -.30714E+02
   .42550E+01   .65554E+02  -.30852E+02
   .42565E+01   .65680E+02  -.31023E+02
   .42580E+01   .65798E+02  -.31162E+02
   .42590E+01   .65873E+02  -.31241E+02
   .42600E+01   .65946E+02  -.31313E+02
   .42630E+01   .66142E+02  -.31496E+02
   .42650E+01   .66274E+02  -.31601E+02
   .42680E+01   .66471E+02  -.31736E+02
   .42700E+01   .66611E+02  -.31813E+02
   .42730E+01   .66821E+02  -.31903E+02
   .42750E+01   .66971E+02  -.31950E+02
   .42780E+01   .67190E+02  -.32002E+02
   .42800E+01   .67336E+02  -.32014E+02
   .42830E+01   .67550E+02  -.32017E+02
   .42850E+01   .67687E+02  -.32020E+02
   .42880E+01   .67880E+02  -.31991E+02
   .42900E+01   .68003E+02  -.31972E+02
   .42930E+01   .68173E+02  -.31933E+02
   .42950E+01   .68280E+02  -.31907E+02
   .43000E+01   .68524E+02  -.31836E+02
   .43050E+01   .68749E+02  -.31775E+02
   .43100E+01   .68964E+02  -.31714E+02
   .43150E+01   .69168E+02  -.31659E+02
   .43200E+01   .69364E+02  -.31603E+02
   .43300E+01   .69752E+02  -.31493E+02
   .43350E+01   .69939E+02  -.31428E+02
   .43400E+01   .70117E+02  -.31364E+02
   .43450E+01   .70287E+02  -.31299E+02
   .43500E+01   .70452E+02  -.31235E+02
   .43580E+01   .70703E+02  -.31136E+02
   .43650E+01   .70912E+02  -.31050E+02
   .43730E+01   .71135E+02  -.30952E+02
   .43800E+01   .71326E+02  -.30866E+02
   .43950E+01   .71718E+02  -.30698E+02
   .44020E+01   .71892E+02  -.30619E+02
   .44100E+01   .72085E+02  -.30529E+02
   .44200E+01   .72317E+02  -.30420E+02
   .44300E+01   .72538E+02  -.30311E+02
   .44400E+01   .72750E+02  -.30202E+02
   .44500E+01   .72954E+02  -.30093E+02
   .44700E+01   .73338E+02  -.29883E+02
   .44900E+01   .73691E+02  -.29674E+02
   .45100E+01   .74017E+02  -.29465E+02
   .45259E+01   .74256E+02  -.29299E+02
   .45400E+01   .74454E+02  -.29157E+02
   .45600E+01   .74713E+02  -.28957E+02
   .45800E+01   .74947E+02  -.28756E+02
   .46000E+01   .75154E+02  -.28555E+02
   .46150E+01   .75293E+02  -.28411E+02
   .46300E+01   .75415E+02  -.28266E+02
   .46500E+01   .75553E+02  -.28074E+02
   .46700E+01   .75657E+02  -.27881E+02
   .46850E+01   .75710E+02  -.27742E+02
   .47000E+01   .75739E+02  -.27602E+02
   .47100E+01   .75741E+02  -.27510E+02
   .47200E+01   .75728E+02  -.27417E+02
   .47300E+01   .75696E+02  -.27324E+02
   .47400E+01   .75641E+02  -.27231E+02
   .47500E+01   .75558E+02  -.27142E+02
   .47600E+01   .75438E+02  -.27052E+02
   .47650E+01   .75360E+02  -.27007E+02
   .47700E+01   .75267E+02  -.26963E+02
   .47750E+01   .75156E+02  -.26918E+02
   .47800E+01   .75021E+02  -.26874E+02
   .47850E+01   .74857E+02  -.26829E+02
   .47900E+01   .74653E+02  -.26784E+02
   .47950E+01   .74394E+02  -.26739E+02
   .48000E+01   .74053E+02  -.26695E+02
   .48040E+01   .73685E+02  -.26659E+02
   .48060E+01   .73453E+02  -.26641E+02
   .48080E+01   .73175E+02  -.26623E+02
   .48100E+01   .72827E+02  -.26605E+02
   .48120E+01   .72368E+02  -.26587E+02
   .48135E+01   .71877E+02  -.26574E+02
   .48151E+01   .69708E+02  -.26560E+02
   .48152E+01   .71173E+02  -.31508E+02
   .48153E+01   .72632E+02  -.26558E+02
   .48159E+01   .70496E+02  -.26552E+02
   .48166E+01   .62132E+02  -.26546E+02
   .48167E+01   .71214E+02  -.56029E+02
   .48168E+01   .80296E+02  -.26545E+02
   .48190E+01   .70146E+02  -.26526E+02
   .48197E+01   .69380E+02  -.26520E+02
   .48203E+01   .68557E+02  -.26514E+02
   .48212E+01   .67024E+02  -.26506E+02
   .48220E+01   .64803E+02  -.26500E+02
   .48229E+01   .59794E+02  -.26492E+02
   .48238E+01   .24217E+02  -.26484E+02
   .48239E+01   .47640E+02  -.11165E+03
   .48240E+01   .70124E+02  -.26482E+02
   .48243E+01   .30937E+02  -.26479E+02
   .48246E+01  -.10289E+03  -.26477E+02
   .48246E+01   .75304E+02  -.60276E+03
   .48247E+01   .25363E+03  -.26476E+02
   .48252E+01   .10579E+03  -.26472E+02
   .48256E+01   .91349E+02  -.26468E+02
   .48260E+01   .84475E+02  -.26465E+02
   .48264E+01   .77795E+02  -.26461E+02
   .48265E+01   .79774E+02  -.35725E+02
   .48266E+01   .81731E+02  -.26459E+02
   .48269E+01   .76836E+02  -.26457E+02
   .48271E+01   .67028E+02  -.26455E+02
   .48272E+01   .77631E+02  -.61276E+02
   .48273E+01   .87055E+02  -.26453E+02
   .48274E+01   .83532E+02  -.26453E+02
   .48274E+01   .80817E+02  -.26452E+02
   .48275E+01   .78933E+02  -.29749E+02
   .48276E+01   .77523E+02  -.26451E+02
   .48277E+01   .75607E+02  -.26450E+02
   .48277E+01   .73537E+02  -.26450E+02
   .48278E+01   .77191E+02  -.42795E+02
   .48279E+01   .80819E+02  -.26448E+02
   .48280E+01   .77609E+02  -.26448E+02
   .48280E+01   .75061E+02  -.26447E+02
   .48281E+01   .75897E+02  -.32997E+02
   .48281E+01   .77153E+02  -.39547E+02
   .48282E+01   .78379E+02  -.32996E+02
   .48282E+01   .79324E+02  -.26445E+02
   .48282E+01   .78035E+02  -.26445E+02
   .48282E+01   .77382E+02  -.26445E+02
   .48283E+01   .77208E+02  -.30768E+02
   .48284E+01   .77429E+02  -.35091E+02
   .48284E+01   .77510E+02  -.30767E+02
   .48284E+01   .77544E+02  -.26444E+02
   .48284E+01   .78195E+02  -.26444E+02
   .48285E+01   .78621E+02  -.26443E+02
   .48285E+01   .77513E+02  -.30041E+02
   .48286E+01   .76186E+02  -.27988E+02
   .48287E+01   .75288E+02  -.29550E+02
   .48287E+01   .75478E+02  -.30892E+02
   .48288E+01   .76095E+02  -.30891E+02
   .48289E+01   .76228E+02  -.30890E+02
   .48290E+01   .76281E+02  -.30890E+02
   .48291E+01   .76308E+02  -.30889E+02
   .48291E+01   .76316E+02  -.30888E+02
   .48292E+01   .76316E+02  -.30887E+02
   .48293E+01   .76310E+02  -.30887E+02
   .48293E+01   .76300E+02  -.30886E+02
   .48294E+01   .76288E+02  -.30885E+02
   .48295E+01   .76273E+02  -.30885E+02
   .48296E+01   .76242E+02  -.30883E+02
   .48298E+01   .76209E+02  -.30882E+02
   .48299E+01   .76176E+02  -.30880E+02
   .48301E+01   .76145E+02  -.30879E+02
   .48302E+01   .76114E+02  -.30877E+02
   .48304E+01   .76085E+02  -.30876E+02
   .48307E+01   .76031E+02  -.30873E+02
   .48310E+01   .75984E+02  -.30870E+02
   .48314E+01   .75929E+02  -.30866E+02
   .48318E+01   .75884E+02  -.30862E+02
   .48321E+01   .75856E+02  -.30860E+02
   .48325E+01   .75824E+02  -.30856E+02
   .48329E+01   .75798E+02  -.30852E+02
   .48333E+01   .75778E+02  -.30848E+02
   .48340E+01   .75753E+02  -.30841E+02
   .48347E+01   .75739E+02  -.30835E+02
   .48355E+01   .75732E+02  -.30827E+02
   .48363E+01   .75735E+02  -.30819E+02
   .48370E+01   .75742E+02  -.30812E+02
   .48380E+01   .75760E+02  -.30803E+02
   .48390E+01   .75783E+02  -.30793E+02
   .48405E+01   .75826E+02  -.30779E+02
   .48420E+01   .75875E+02  -.30765E+02
   .48435E+01   .75929E+02  -.30750E+02
   .48450E+01   .75984E+02  -.30736E+02
   .48465E+01   .76042E+02  -.30722E+02
   .48480E+01   .76100E+02  -.30708E+02
   .48500E+01   .76178E+02  -.30688E+02
   .48520E+01   .76256E+02  -.30669E+02
   .48550E+01   .76370E+02  -.30641E+02
   .48580E+01   .76482E+02  -.30612E+02
   .48600E+01   .76555E+02  -.30594E+02
   .48650E+01   .76731E+02  -.30546E+02
   .48700E+01   .76898E+02  -.30499E+02
   .48750E+01   .77057E+02  -.30452E+02
   .48800E+01   .77209E+02  -.30406E+02
   .48850E+01   .77354E+02  -.30359E+02
   .48900E+01   .77492E+02  -.30312E+02
   .48950E+01   .77625E+02  -.30265E+02
   .49000E+01   .77753E+02  -.30219E+02
   .49100E+01   .77994E+02  -.30126E+02
   .49200E+01   .78220E+02  -.30037E+02
   .49300E+01   .78434E+02  -.29948E+02
   .49400E+01   .78637E+02  -.29859E+02
   .49500E+01   .78831E+02  -.29771E+02
   .49600E+01   .79015E+02  -.29684E+02
   .49700E+01   .79193E+02  -.29597E+02
   .49850E+01   .79447E+02  -.29466E+02
   .50000E+01   .79688E+02  -.29336E+02
   .50100E+01   .79843E+02  -.29250E+02
   .50200E+01   .79992E+02  -.29164E+02
   .50350E+01   .80207E+02  -.29035E+02
   .50500E+01   .80412E+02  -.28906E+02
   .50700E+01   .80672E+02  -.28735E+02
   .50850E+01   .80858E+02  -.28606E+02
   .51000E+01   .81037E+02  -.28477E+02
   .51150E+01   .81209E+02  -.28355E+02
   .51300E+01   .81376E+02  -.28232E+02
   .51500E+01   .81590E+02  -.28069E+02
   .51800E+01   .81894E+02  -.27823E+02
   .52000E+01   .82086E+02  -.27660E+02
   .52300E+01   .82360E+02  -.27426E+02
   .52500E+01   .82535E+02  -.27270E+02
   .52700E+01   .82703E+02  -.27114E+02
   .52900E+01   .82866E+02  -.26957E+02
   .53100E+01   .83024E+02  -.26805E+02
   .53400E+01   .83248E+02  -.26575E+02
   .53600E+01   .83390E+02  -.26422E+02
   .53816E+01   .83536E+02  -.26258E+02
   .53910E+01   .83598E+02  -.26187E+02
   .54000E+01   .83656E+02  -.26121E+02
   .54070E+01   .83701E+02  -.26068E+02
   .54147E+01   .83749E+02  -.26011E+02
   .54500E+01   .83960E+02  -.25778E+02
   .54900E+01   .84183E+02  -.25514E+02
   .55200E+01   .84338E+02  -.25315E+02
   .55600E+01   .84528E+02  -.25051E+02
   .55900E+01   .84659E+02  -.24853E+02
   .56300E+01   .84816E+02  -.24589E+02
   .56600E+01   .84921E+02  -.24390E+02
   .57000E+01   .85042E+02  -.24126E+02
   .57300E+01   .85117E+02  -.23928E+02
   .57600E+01   .85176E+02  -.23730E+02
   .57750E+01   .85198E+02  -.23631E+02
   .57900E+01   .85215E+02  -.23531E+02
   .58050E+01   .85226E+02  -.23432E+02
   .58200E+01   .85228E+02  -.23333E+02
   .58350E+01   .85221E+02  -.23234E+02
   .58500E+01   .85198E+02  -.23135E+02
   .58650E+01   .85164E+02  -.23036E+02
   .58720E+01   .85139E+02  -.22990E+02
   .58800E+01   .85102E+02  -.22937E+02
   .58880E+01   .85053E+02  -.22884E+02
   .58950E+01   .84998E+02  -.22838E+02
   .59030E+01   .84914E+02  -.22785E+02
   .59100E+01   .84813E+02  -.22739E+02
   .59160E+01   .84692E+02  -.22699E+02
   .59190E+01   .84613E+02  -.22679E+02
   .59220E+01   .84515E+02  -.22659E+02
   .59250E+01   .84388E+02  -.22639E+02
   .59280E+01   .84212E+02  -.22620E+02
   .59310E+01   .83923E+02  -.22600E+02
   .59345E+01   .77114E+02  -.22576E+02
   .59347E+01   .83773E+02  -.43602E+02
   .59348E+01   .90433E+02  -.22575E+02
   .59370E+01   .83704E+02  -.22562E+02
   .59380E+01   .83334E+02  -.22556E+02
   .59390E+01   .82890E+02  -.22550E+02
   .59400E+01   .82302E+02  -.22544E+02
   .59410E+01   .81281E+02  -.22538E+02
   .59416E+01   .80177E+02  -.22535E+02
   .59421E+01   .78527E+02  -.22532E+02
   .59427E+01   .73587E+02  -.22529E+02
   .59433E+01   .21368E+02  -.22525E+02
   .59434E+01   .84068E+02  -.21979E+03
   .59435E+01   .14677E+03  -.22524E+02
   .59441E+01   .94825E+02  -.22520E+02
   .59444E+01   .91437E+02  -.22519E+02
   .59447E+01   .89521E+02  -.22517E+02
   .59450E+01   .88347E+02  -.22515E+02
   .59453E+01   .87433E+02  -.22513E+02
   .59454E+01   .87032E+02  -.22513E+02
   .59456E+01   .86638E+02  -.22512E+02
   .59458E+01   .86206E+02  -.22511E+02
   .59459E+01   .85529E+02  -.22510E+02
   .59460E+01   .85699E+02  -.23477E+02
   .59460E+01   .85864E+02  -.24444E+02
   .59461E+01   .86170E+02  -.22508E+02
   .59462E+01   .85542E+02  -.22508E+02
   .59464E+01   .85008E+02  -.22507E+02
   .59465E+01   .84299E+02  -.22507E+02
   .59466E+01   .82770E+02  -.22506E+02
   .59466E+01   .83675E+02  -.22506E+02
   .59467E+01   .84604E+02  -.30148E+02
   .59468E+01   .86589E+02  -.23238E+02
   .59469E+01   .85963E+02  -.23413E+02
   .59469E+01   .85664E+02  -.23590E+02
   .59470E+01   .85370E+02  -.24430E+02
   .59471E+01   .85061E+02  -.23741E+02
   .59472E+01   .84881E+02  -.23742E+02
   .59472E+01   .84670E+02  -.23742E+02
   .59473E+01   .85492E+02  -.27358E+02
   .59474E+01   .86301E+02  -.23745E+02
   .59475E+01   .85869E+02  -.23745E+02
   .59475E+01   .85413E+02  -.23746E+02
   .59476E+01   .85934E+02  -.26790E+02
   .59477E+01   .86473E+02  -.23748E+02
   .59477E+01   .86370E+02  -.23748E+02
   .59478E+01   .86154E+02  -.23749E+02
   .59479E+01   .86434E+02  -.26034E+02
   .59480E+01   .86917E+02  -.23751E+02
   .59482E+01   .86287E+02  -.23753E+02
   .59485E+01   .85993E+02  -.23756E+02
   .59487E+01   .85885E+02  -.23758E+02
   .59490E+01   .85772E+02  -.23762E+02
   .59495E+01   .85646E+02  -.23767E+02
   .59500E+01   .85560E+02  -.23772E+02
   .59508E+01   .85465E+02  -.23780E+02
   .59515E+01   .85409E+02  -.23788E+02
   .59523E+01   .85366E+02  -.23796E+02
   .59530E+01   .85338E+02  -.23803E+02
   .59537E+01   .85317E+02  -.23806E+02
   .59545E+01   .85300E+02  -.23809E+02
   .59560E+01   .85287E+02  -.23814E+02
   .59575E+01   .85285E+02  -.23820E+02
   .59590E+01   .85293E+02  -.23825E+02
   .59605E+01   .85305E+02  -.23820E+02
   .59620E+01   .85326E+02  -.23815E+02
   .59640E+01   .85347E+02  -.23809E+02
   .59670E+01   .85383E+02  -.23786E+02
   .59700E+01   .85417E+02  -.23764E+02
   .59740E+01   .85460E+02  -.23734E+02
   .59770E+01   .85490E+02  -.23712E+02
   .59810E+01   .85528E+02  -.23682E+02
   .59850E+01   .85562E+02  -.23653E+02
   .59890E+01   .85593E+02  -.23631E+02
   .59930E+01   .85627E+02  -.23609E+02
   .60000E+01   .85686E+02  -.23571E+02
   .60080E+01   .85751E+02  -.23526E+02
   .60150E+01   .85804E+02  -.23486E+02
   .60230E+01   .85862E+02  -.23441E+02
   .60300E+01   .85909E+02  -.23401E+02
   .60400E+01   .85974E+02  -.23344E+02
   .60500E+01   .86035E+02  -.23288E+02
   .60600E+01   .86092E+02  -.23231E+02
   .60700E+01   .86147E+02  -.23174E+02
   .60850E+01   .86223E+02  -.23091E+02
   .61000E+01   .86294E+02  -.23008E+02
   .61200E+01   .86380E+02  -.22898E+02
   .61345E+01   .86436E+02  -.22818E+02
   .61600E+01   .86524E+02  -.22681E+02
   .61800E+01   .86584E+02  -.22574E+02
   .61900E+01   .86609E+02  -.22521E+02
   .62000E+01   .86632E+02  -.22467E+02
   .62150E+01   .86661E+02  -.22387E+02
   .62300E+01   .86681E+02  -.22306E+02
   .62400E+01   .86689E+02  -.22255E+02
   .62500E+01   .86691E+02  -.22203E+02
   .62580E+01   .86687E+02  -.22161E+02
   .62650E+01   .86679E+02  -.22125E+02
   .62730E+01   .86663E+02  -.22083E+02
   .62800E+01   .86641E+02  -.22047E+02
   .62850E+01   .86619E+02  -.22021E+02
   .62900E+01   .86590E+02  -.21995E+02
   .62950E+01   .86552E+02  -.21969E+02
   .63000E+01   .86500E+02  -.21943E+02
   .63030E+01   .86460E+02  -.21928E+02
   .63060E+01   .86409E+02  -.21912E+02
   .63090E+01   .86343E+02  -.21896E+02
   .63110E+01   .86287E+02  -.21886E+02
   .63140E+01   .86170E+02  -.21871E+02
   .63150E+01   .86118E+02  -.21865E+02
   .63160E+01   .86055E+02  -.21860E+02
   .63175E+01   .85929E+02  -.21852E+02
   .63190E+01   .85730E+02  -.21844E+02
   .63200E+01   .85497E+02  -.21839E+02
   .63211E+01   .84558E+02  -.21834E+02
   .63211E+01   .84805E+02  -.22814E+02
   .63212E+01   .85032E+02  -.23654E+02
   .63213E+01   .85486E+02  -.21833E+02
   .63215E+01   .84810E+02  -.21831E+02
   .63218E+01   .83971E+02  -.21830E+02
   .63219E+01   .84360E+02  -.23987E+02
   .63221E+01   .84636E+02  -.21829E+02
   .63222E+01   .83245E+02  -.21828E+02
   .63224E+01   .79380E+02  -.21827E+02
   .63225E+01   .85273E+02  -.41290E+02
   .63227E+01   .91110E+02  -.21826E+02
   .63228E+01   .87524E+02  -.21825E+02
   .63230E+01   .85291E+02  -.21824E+02
   .63231E+01   .87014E+02  -.29034E+02
   .63232E+01   .88911E+02  -.21823E+02
   .63234E+01   .87456E+02  -.21822E+02
   .63235E+01   .86844E+02  -.21821E+02
   .63236E+01   .86463E+02  -.21821E+02
   .63238E+01   .86142E+02  -.21820E+02
   .63239E+01   .85855E+02  -.21819E+02
   .63240E+01   .85531E+02  -.21819E+02
   .63241E+01   .85262E+02  -.21819E+02
   .63242E+01   .84905E+02  -.21818E+02
   .63242E+01   .84351E+02  -.21818E+02
   .63243E+01   .83422E+02  -.21817E+02
   .63243E+01   .83662E+02  -.22932E+02
   .63243E+01   .83961E+02  -.24046E+02
   .63244E+01   .84406E+02  -.25717E+02
   .63244E+01   .85304E+02  -.29060E+02
   .63246E+01   .87194E+02  -.22207E+02
   .63246E+01   .86272E+02  -.22512E+02
   .63247E+01   .85865E+02  -.22813E+02
   .63248E+01   .85637E+02  -.22812E+02
   .63249E+01   .85205E+02  -.22812E+02
   .63250E+01   .85598E+02  -.24335E+02
   .63250E+01   .85985E+02  -.25858E+02
   .63252E+01   .86732E+02  -.22811E+02
   .63252E+01   .86394E+02  -.22810E+02
   .63252E+01   .86050E+02  -.22810E+02
   .63254E+01   .86470E+02  -.25233E+02
   .63255E+01   .86866E+02  -.22809E+02
   .63256E+01   .86931E+02  -.24392E+02
   .63258E+01   .87244E+02  -.22808E+02
   .63261E+01   .86720E+02  -.22806E+02
   .63264E+01   .86606E+02  -.22804E+02
   .63267E+01   .86551E+02  -.22802E+02
   .63270E+01   .86521E+02  -.22801E+02
   .63275E+01   .86496E+02  -.22798E+02
   .63280E+01   .86487E+02  -.22796E+02
   .63285E+01   .86486E+02  -.22793E+02
   .63290E+01   .86490E+02  -.22790E+02
   .63300E+01   .86505E+02  -.22785E+02
   .63310E+01   .86524E+02  -.22780E+02
   .63320E+01   .86546E+02  -.22774E+02
   .63330E+01   .86567E+02  -.22769E+02
   .63345E+01   .86599E+02  -.22761E+02
   .63360E+01   .86630E+02  -.22753E+02
   .63380E+01   .86670E+02  -.22743E+02
   .63400E+01   .86707E+02  -.22732E+02
   .63420E+01   .86742E+02  -.22721E+02
   .63450E+01   .86791E+02  -.22705E+02
   .63480E+01   .86836E+02  -.22690E+02
   .63500E+01   .86864E+02  -.22679E+02
   .63550E+01   .86930E+02  -.22652E+02
   .63600E+01   .86990E+02  -.22626E+02
   .63650E+01   .87045E+02  -.22600E+02
   .63700E+01   .87096E+02  -.22573E+02
   .63750E+01   .87144E+02  -.22547E+02
   .63800E+01   .87190E+02  -.22521E+02
   .63920E+01   .87290E+02  -.22459E+02
   .63980E+01   .87337E+02  -.22427E+02
   .64038E+01   .87381E+02  -.22397E+02
   .64200E+01   .87493E+02  -.22315E+02
   .64400E+01   .87618E+02  -.22215E+02
   .64600E+01   .87734E+02  -.22114E+02
   .64800E+01   .87841E+02  -.22013E+02
   .64950E+01   .87917E+02  -.21938E+02
   .65100E+01   .87990E+02  -.21862E+02
   .65300E+01   .88082E+02  -.21761E+02
   .65500E+01   .88171E+02  -.21660E+02
   .65700E+01   .88255E+02  -.21565E+02
   .65900E+01   .88336E+02  -.21470E+02
   .66300E+01   .88489E+02  -.21279E+02
   .66600E+01   .88597E+02  -.21136E+02
   .67000E+01   .88733E+02  -.20946E+02
   .67400E+01   .88862E+02  -.20766E+02
   .67800E+01   .88983E+02  -.20586E+02
   .68100E+01   .89070E+02  -.20450E+02
   .68500E+01   .89180E+02  -.20270E+02
   .68800E+01   .89259E+02  -.20140E+02
   .69200E+01   .89361E+02  -.19967E+02
   .69600E+01   .89457E+02  -.19799E+02
   .70000E+01   .89549E+02  -.19630E+02
   .70300E+01   .89614E+02  -.19510E+02
   .70700E+01   .89700E+02  -.19350E+02
   .71100E+01   .89782E+02  -.19191E+02
   .71500E+01   .89862E+02  -.19031E+02
   .71800E+01   .89920E+02  -.18917E+02
   .72200E+01   .89994E+02  -.18765E+02
   .73000E+01   .90135E+02  -.18462E+02
   .73500E+01   .90218E+02  -.18280E+02
   .74000E+01   .90298E+02  -.18098E+02
   .74500E+01   .90374E+02  -.17923E+02
   .75000E+01   .90448E+02  -.17747E+02
   .75700E+01   .90546E+02  -.17509E+02
   .76500E+01   .90650E+02  -.17237E+02
   .77200E+01   .90735E+02  -.17010E+02
   .78000E+01   .90827E+02  -.16751E+02
   .78500E+01   .90881E+02  -.16596E+02
   .79000E+01   .90933E+02  -.16440E+02
   .80000E+01   .91032E+02  -.16138E+02
   .80100E+01   .91042E+02  -.16108E+02
   .80200E+01   .91051E+02  -.16078E+02
   .80340E+01   .91064E+02  -.16036E+02
   .80478E+01   .91077E+02  -.15995E+02
   .81100E+01   .91132E+02  -.15814E+02
   .81700E+01   .91181E+02  -.15640E+02
   .82400E+01   .91236E+02  -.15443E+02
   .83000E+01   .91280E+02  -.15275E+02
   .83500E+01   .91315E+02  -.15140E+02
   .84000E+01   .91348E+02  -.15005E+02
   .84500E+01   .91381E+02  -.14873E+02
   .85000E+01   .91412E+02  -.14742E+02
   .85700E+01   .91454E+02  -.14562E+02
   .86500E+01   .91497E+02  -.14356E+02
   .87200E+01   .91531E+02  -.14184E+02
   .88000E+01   .91567E+02  -.13987E+02
   .88500E+01   .91588E+02  -.13869E+02
   .89000E+01   .91607E+02  -.13750E+02
   .90000E+01   .91643E+02  -.13519E+02
   .90700E+01   .91665E+02  -.13364E+02
   .91500E+01   .91689E+02  -.13187E+02
   .92200E+01   .91707E+02  -.13038E+02
   .93000E+01   .91727E+02  -.12868E+02
   .94000E+01   .91749E+02  -.12662E+02
   .95000E+01   .91768E+02  -.12462E+02
   .96500E+01   .91791E+02  -.12173E+02
   .98000E+01   .91811E+02  -.11896E+02
   .99000E+01   .91822E+02  -.11717E+02
   .10000E+02   .91833E+02  -.11542E+02
   .10070E+02   .91840E+02  -.11420E+02
   .10150E+02   .91845E+02  -.11281E+02
   .10220E+02   .91848E+02  -.11163E+02
   .10300E+02   .91849E+02  -.11029E+02
   .10450E+02   .91849E+02  -.10787E+02
   .10600E+02   .91844E+02  -.10553E+02
   .10750E+02   .91835E+02  -.10328E+02
   .10900E+02   .91823E+02  -.10110E+02
   .11100E+02   .91801E+02  -.98318E+01
   .11220E+02   .91786E+02  -.96707E+01
   .11400E+02   .91760E+02  -.94371E+01
   .11600E+02   .91726E+02  -.91886E+01
   .11750E+02   .91699E+02  -.90095E+01
   .11900E+02   .91670E+02  -.88362E+01
   .12100E+02   .91628E+02  -.86134E+01
   .12300E+02   .91583E+02  -.83998E+01
   .12500E+02   .91535E+02  -.81939E+01
   .12652E+02   .91497E+02  -.80427E+01
   .12900E+02   .91431E+02  -.78062E+01
   .13050E+02   .91389E+02  -.76695E+01
   .13200E+02   .91345E+02  -.75328E+01
   .13350E+02   .91299E+02  -.74034E+01
   .13500E+02   .91252E+02  -.72739E+01
   .13650E+02   .91203E+02  -.71507E+01
   .13800E+02   .91151E+02  -.70275E+01
   .13950E+02   .91098E+02  -.69110E+01
   .14100E+02   .91042E+02  -.67946E+01
   .14250E+02   .90984E+02  -.66846E+01
   .14400E+02   .90924E+02  -.65745E+01
   .14550E+02   .90863E+02  -.64702E+01
   .14700E+02   .90799E+02  -.63659E+01
   .14850E+02   .90733E+02  -.62668E+01
   .15000E+02   .90666E+02  -.61678E+01
   .15150E+02   .90595E+02  -.60730E+01
   .15300E+02   .90522E+02  -.59782E+01
   .15450E+02   .90445E+02  -.58881E+01
   .15600E+02   .90365E+02  -.57980E+01
   .15750E+02   .90282E+02  -.57122E+01
   .15900E+02   .90195E+02  -.56264E+01
   .16050E+02   .90104E+02  -.55447E+01
   .16200E+02   .90009E+02  -.54630E+01
   .16350E+02   .89908E+02  -.53851E+01
   .16500E+02   .89802E+02  -.53072E+01
   .16650E+02   .89690E+02  -.52329E+01
   .16800E+02   .89571E+02  -.51585E+01
   .16950E+02   .89444E+02  -.50874E+01
   .17020E+02   .89382E+02  -.50542E+01
   .17100E+02   .89308E+02  -.50163E+01
   .17200E+02   .89211E+02  -.49711E+01
   .17300E+02   .89109E+02  -.49260E+01
   .17390E+02   .89012E+02  -.48853E+01
   .17479E+02   .88910E+02  -.48451E+01
   .17540E+02   .88837E+02  -.48185E+01
   .17600E+02   .88763E+02  -.47924E+01
   .17700E+02   .88631E+02  -.47499E+01
   .17800E+02   .88488E+02  -.47074E+01
   .17850E+02   .88412E+02  -.46870E+01
   .17900E+02   .88333E+02  -.46667E+01
   .17950E+02   .88250E+02  -.46463E+01
   .18000E+02   .88163E+02  -.46259E+01
   .18050E+02   .88071E+02  -.46056E+01
   .18100E+02   .87974E+02  -.45852E+01
   .18150E+02   .87872E+02  -.45649E+01
   .18200E+02   .87763E+02  -.45445E+01
   .18250E+02   .87647E+02  -.45253E+01
   .18300E+02   .87523E+02  -.45060E+01
   .18350E+02   .87389E+02  -.44868E+01
   .18400E+02   .87244E+02  -.44676E+01
   .18450E+02   .87085E+02  -.44483E+01
   .18470E+02   .87017E+02  -.44406E+01
   .18500E+02   .86911E+02  -.44291E+01
   .18520E+02   .86836E+02  -.44214E+01
   .18550E+02   .86716E+02  -.44099E+01
   .18570E+02   .86632E+02  -.44022E+01
   .18600E+02   .86498E+02  -.43906E+01
   .18630E+02   .86352E+02  -.43797E+01
   .18650E+02   .86247E+02  -.43724E+01
   .18670E+02   .86136E+02  -.43651E+01
   .18700E+02   .85954E+02  -.43542E+01
   .18720E+02   .85822E+02  -.43469E+01
   .18735E+02   .85715E+02  -.43414E+01
   .18750E+02   .85602E+02  -.43360E+01
   .18765E+02   .85480E+02  -.43305E+01
   .18780E+02   .85350E+02  -.43250E+01
   .18790E+02   .85257E+02  -.43214E+01
   .18800E+02   .85159E+02  -.43178E+01
   .18815E+02   .85001E+02  -.43123E+01
   .18830E+02   .84828E+02  -.43068E+01
   .18840E+02   .84702E+02  -.43032E+01
   .18850E+02   .84566E+02  -.42995E+01
   .18860E+02   .84419E+02  -.42959E+01
   .18870E+02   .84258E+02  -.42923E+01
   .18880E+02   .84082E+02  -.42886E+01
   .18890E+02   .83886E+02  -.42850E+01
   .18900E+02   .83666E+02  -.42813E+01
   .18905E+02   .83545E+02  -.42795E+01
   .18910E+02   .83415E+02  -.42777E+01
   .18915E+02   .83276E+02  -.42758E+01
   .18920E+02   .83125E+02  -.42740E+01
   .18925E+02   .82960E+02  -.42722E+01
   .18930E+02   .82778E+02  -.42704E+01
   .18935E+02   .82577E+02  -.42686E+01
   .18940E+02   .82351E+02  -.42667E+01
   .18945E+02   .82094E+02  -.42649E+01
   .18948E+02   .81921E+02  -.42638E+01
   .18950E+02   .81797E+02  -.42631E+01
   .18953E+02   .81593E+02  -.42620E+01
   .18957E+02   .81283E+02  -.42605E+01
   .18961E+02   .80914E+02  -.42591E+01
   .18962E+02   .80756E+02  -.42585E+01
   .18964E+02   .80584E+02  -.42580E+01
   .18966E+02   .80330E+02  -.42573E+01
   .18968E+02   .80039E+02  -.42565E+01
   .18969E+02   .79791E+02  -.42560E+01
   .18971E+02   .79510E+02  -.42554E+01
   .18973E+02   .79065E+02  -.42547E+01
   .18975E+02   .78501E+02  -.42540E+01
   .18977E+02   .77705E+02  -.42533E+01
   .18979E+02   .76323E+02  -.42527E+01
   .18979E+02   .76347E+02  -.47414E+01
   .18979E+02   .76430E+02  -.52301E+01
   .18979E+02   .76575E+02  -.62076E+01
   .18979E+02   .76710E+02  -.42524E+01
   .18980E+02   .75669E+02  -.42523E+01
   .18980E+02   .73745E+02  -.42521E+01
   .18981E+02   .76649E+02  -.14802E+02
   .18981E+02   .79552E+02  -.42518E+01
   .18982E+02   .76441E+02  -.42515E+01
   .18983E+02   .75012E+02  -.42511E+01
   .18984E+02   .73772E+02  -.42508E+01
   .18985E+02   .72408E+02  -.42506E+01
   .18985E+02   .70252E+02  -.42503E+01
   .18986E+02   .67341E+02  -.42500E+01
   .18986E+02   .64070E+02  -.42499E+01
   .18987E+02   .58633E+02  -.42497E+01
   .18987E+02   .47537E+02  -.42495E+01
   .18988E+02   .10837E+02  -.42493E+01
   .18988E+02   .33904E+02  -.12184E+03
   .18988E+02   .73068E+02  -.23943E+03
   .18989E+02   .15137E+03  -.42491E+01
   .18989E+02   .10945E+03  -.42489E+01
   .18990E+02   .98626E+02  -.42487E+01
   .18990E+02   .93743E+02  -.42486E+01
   .18990E+02   .91099E+02  -.42486E+01
   .18990E+02   .88592E+02  -.42485E+01
   .18991E+02   .84955E+02  -.42484E+01
   .18991E+02   .85331E+02  -.88066E+01
   .18991E+02   .86124E+02  -.17923E+02
   .18991E+02   .87505E+02  -.42481E+01
   .18992E+02   .86122E+02  -.12948E+02
   .18992E+02   .86968E+02  -.42479E+01
   .18992E+02   .87522E+02  -.42479E+01
   .18992E+02   .87283E+02  -.95562E+01
   .18993E+02   .85682E+02  -.42477E+01
   .18993E+02   .82750E+02  -.47195E+01
   .18993E+02   .81240E+02  -.58411E+01
   .18993E+02   .80455E+02  -.72292E+01
   .18993E+02   .80507E+02  -.89472E+01
   .18994E+02   .80842E+02  -.99547E+01
   .18994E+02   .81363E+02  -.99546E+01
   .18994E+02   .81843E+02  -.99545E+01
   .18994E+02   .82076E+02  -.99542E+01
   .18994E+02   .82160E+02  -.99541E+01
   .18995E+02   .82214E+02  -.99539E+01
   .18995E+02   .82259E+02  -.99537E+01
   .18995E+02   .82276E+02  -.99535E+01
   .18996E+02   .82289E+02  -.99532E+01
   .18996E+02   .82293E+02  -.99531E+01
   .18996E+02   .82294E+02  -.99528E+01
   .18996E+02   .82291E+02  -.99527E+01
   .18996E+02   .82288E+02  -.99525E+01
   .18997E+02   .82284E+02  -.99522E+01
   .18997E+02   .82276E+02  -.99519E+01
   .18997E+02   .82270E+02  -.99516E+01
   .18998E+02   .82264E+02  -.99513E+01
   .18998E+02   .82260E+02  -.99509E+01
   .18999E+02   .82258E+02  -.99507E+01
   .18999E+02   .82257E+02  -.99503E+01
   .19000E+02   .82257E+02  -.99499E+01
   .19000E+02   .82259E+02  -.99495E+01
   .19000E+02   .82264E+02  -.99491E+01
   .19001E+02   .82270E+02  -.99487E+01
   .19001E+02   .82278E+02  -.99483E+01
   .19002E+02   .82287E+02  -.99479E+01
   .19003E+02   .82310E+02  -.99470E+01
   .19004E+02   .82328E+02  -.99465E+01
   .19004E+02   .82351E+02  -.99458E+01
   .19005E+02   .82372E+02  -.99452E+01
   .19006E+02   .82398E+02  -.99445E+01
   .19007E+02   .82431E+02  -.99437E+01
   .19008E+02   .82466E+02  -.99429E+01
   .19009E+02   .82502E+02  -.99421E+01
   .19010E+02   .82538E+02  -.99412E+01
   .19011E+02   .82592E+02  -.99400E+01
   .19013E+02   .82648E+02  -.99388E+01
   .19015E+02   .82721E+02  -.99371E+01
   .19017E+02   .82793E+02  -.99355E+01
   .19018E+02   .82847E+02  -.99342E+01
   .19020E+02   .82899E+02  -.99330E+01
   .19022E+02   .82968E+02  -.99313E+01
   .19024E+02   .83035E+02  -.99297E+01
   .19026E+02   .83101E+02  -.99280E+01
   .19028E+02   .83164E+02  -.99264E+01
   .19032E+02   .83287E+02  -.99231E+01
   .19035E+02   .83374E+02  -.99206E+01
   .19039E+02   .83485E+02  -.99173E+01
   .19043E+02   .83591E+02  -.99140E+01
   .19047E+02   .83692E+02  -.99108E+01
   .19050E+02   .83764E+02  -.99083E+01
   .19055E+02   .83879E+02  -.99042E+01
   .19060E+02   .83987E+02  -.99001E+01
   .19065E+02   .84090E+02  -.98960E+01
   .19070E+02   .84187E+02  -.98919E+01
   .19078E+02   .84334E+02  -.98853E+01
   .19085E+02   .84454E+02  -.98796E+01
   .19093E+02   .84582E+02  -.98730E+01
   .19100E+02   .84687E+02  -.98673E+01
   .19108E+02   .84801E+02  -.98608E+01
   .19115E+02   .84896E+02  -.98551E+01
   .19123E+02   .84998E+02  -.98486E+01
   .19130E+02   .85083E+02  -.98429E+01
   .19140E+02   .85199E+02  -.98348E+01
   .19150E+02   .85308E+02  -.98266E+01
   .19165E+02   .85460E+02  -.98145E+01
   .19180E+02   .85601E+02  -.98024E+01
   .19190E+02   .85689E+02  -.97943E+01
   .19200E+02   .85774E+02  -.97862E+01
   .19220E+02   .85932E+02  -.97703E+01
   .19240E+02   .86078E+02  -.97543E+01
   .19260E+02   .86214E+02  -.97384E+01
   .19280E+02   .86340E+02  -.97225E+01
   .19295E+02   .86429E+02  -.97105E+01
   .19310E+02   .86515E+02  -.96985E+01
   .19330E+02   .86623E+02  -.96826E+01
   .19350E+02   .86725E+02  -.96666E+01
   .19370E+02   .86821E+02  -.96510E+01
   .19390E+02   .86913E+02  -.96354E+01
   .19410E+02   .87001E+02  -.96197E+01
   .19430E+02   .87084E+02  -.96041E+01
   .19450E+02   .87164E+02  -.95885E+01
   .19470E+02   .87241E+02  -.95729E+01
   .19500E+02   .87350E+02  -.95494E+01
   .19530E+02   .87453E+02  -.95261E+01
   .19570E+02   .87581E+02  -.94951E+01
   .19610E+02   .87701E+02  -.94641E+01
   .19650E+02   .87813E+02  -.94331E+01
   .19690E+02   .87918E+02  -.94021E+01
   .19730E+02   .88016E+02  -.93711E+01
   .19770E+02   .88110E+02  -.93401E+01
   .19800E+02   .88176E+02  -.93169E+01
   .19850E+02   .88282E+02  -.92787E+01
   .19900E+02   .88381E+02  -.92405E+01
   .19950E+02   .88473E+02  -.92023E+01
   .20000E+02   .88561E+02  -.91641E+01
   .20050E+02   .88644E+02  -.91262E+01
   .20100E+02   .88721E+02  -.90883E+01
   .20150E+02   .88795E+02  -.90504E+01
   .20200E+02   .88864E+02  -.90124E+01
   .20250E+02   .88929E+02  -.89745E+01
   .20300E+02   .88991E+02  -.89366E+01
   .20350E+02   .89049E+02  -.88987E+01
   .20400E+02   .89105E+02  -.88608E+01
   .20470E+02   .89178E+02  -.88101E+01
   .20550E+02   .89255E+02  -.87522E+01
   .20630E+02   .89326E+02  -.86943E+01
   .20700E+02   .89383E+02  -.86436E+01
   .20780E+02   .89443E+02  -.85879E+01
   .20850E+02   .89492E+02  -.85392E+01
   .20930E+02   .89543E+02  -.84835E+01
   .21000E+02   .89583E+02  -.84347E+01
   .21100E+02   .89636E+02  -.83697E+01
   .21200E+02   .89682E+02  -.83047E+01
   .21290E+02   .89720E+02  -.82461E+01
   .21380E+02   .89753E+02  -.81874E+01
   .21490E+02   .89788E+02  -.81177E+01
   .21600E+02   .89816E+02  -.80479E+01
   .21700E+02   .89836E+02  -.79851E+01
   .21800E+02   .89849E+02  -.79223E+01
   .21900E+02   .89857E+02  -.78611E+01
   .22000E+02   .89860E+02  -.77998E+01
   .22080E+02   .89858E+02  -.77512E+01
   .22120E+02   .89855E+02  -.77269E+01
   .22163E+02   .89851E+02  -.77007E+01
   .22280E+02   .89834E+02  -.76321E+01
   .22400E+02   .89807E+02  -.75616E+01
   .22500E+02   .89775E+02  -.75029E+01
   .22600E+02   .89736E+02  -.74442E+01
   .22650E+02   .89712E+02  -.74163E+01
   .22700E+02   .89686E+02  -.73884E+01
   .22750E+02   .89658E+02  -.73605E+01
   .22800E+02   .89626E+02  -.73326E+01
   .22850E+02   .89591E+02  -.73047E+01
   .22900E+02   .89553E+02  -.72768E+01
   .22950E+02   .89511E+02  -.72488E+01
   .23000E+02   .89464E+02  -.72209E+01
   .23050E+02   .89413E+02  -.71944E+01
   .23100E+02   .89357E+02  -.71679E+01
   .23150E+02   .89295E+02  -.71414E+01
   .23200E+02   .89226E+02  -.71150E+01
   .23250E+02   .89149E+02  -.70885E+01
   .23300E+02   .89062E+02  -.70620E+01
   .23320E+02   .89025E+02  -.70514E+01
   .23350E+02   .88964E+02  -.70355E+01
   .23380E+02   .88898E+02  -.70196E+01
   .23400E+02   .88851E+02  -.70090E+01
   .23420E+02   .88801E+02  -.69989E+01
   .23450E+02   .88719E+02  -.69837E+01
   .23470E+02   .88660E+02  -.69735E+01
   .23500E+02   .88562E+02  -.69584E+01
   .23520E+02   .88491E+02  -.69482E+01
   .23550E+02   .88370E+02  -.69330E+01
   .23560E+02   .88326E+02  -.69279E+01
   .23570E+02   .88280E+02  -.69229E+01
   .23585E+02   .88205E+02  -.69153E+01
   .23600E+02   .88124E+02  -.69077E+01
   .23610E+02   .88065E+02  -.69026E+01
   .23620E+02   .88003E+02  -.68976E+01
   .23630E+02   .87936E+02  -.68925E+01
   .23640E+02   .87863E+02  -.68874E+01
   .23650E+02   .87784E+02  -.68823E+01
   .23660E+02   .87698E+02  -.68773E+01
   .23670E+02   .87603E+02  -.68722E+01
   .23680E+02   .87497E+02  -.68671E+01
   .23690E+02   .87378E+02  -.68621E+01
   .23700E+02   .87241E+02  -.68570E+01
   .23705E+02   .87164E+02  -.68545E+01
   .23710E+02   .87081E+02  -.68520E+01
   .23715E+02   .86990E+02  -.68494E+01
   .23720E+02   .86889E+02  -.68469E+01
   .23725E+02   .86776E+02  -.68443E+01
   .23730E+02   .86649E+02  -.68418E+01
   .23735E+02   .86504E+02  -.68393E+01
   .23738E+02   .86405E+02  -.68378E+01
   .23740E+02   .86333E+02  -.68368E+01
   .23744E+02   .86173E+02  -.68347E+01
   .23747E+02   .86034E+02  -.68332E+01
   .23751E+02   .85815E+02  -.68312E+01
   .23754E+02   .85616E+02  -.68297E+01
   .23756E+02   .85460E+02  -.68286E+01
   .23758E+02   .85279E+02  -.68276E+01
   .23760E+02   .85122E+02  -.68269E+01
   .23761E+02   .84940E+02  -.68261E+01
   .23763E+02   .84725E+02  -.68253E+01
   .23764E+02   .84460E+02  -.68246E+01
   .23766E+02   .83952E+02  -.68236E+01
   .23768E+02   .82577E+02  -.68227E+01
   .23768E+02   .82943E+02  -.84520E+01
   .23768E+02   .83183E+02  -.92666E+01
   .23768E+02   .83666E+02  -.10896E+02
   .23769E+02   .84741E+02  -.68222E+01
   .23770E+02   .83465E+02  -.68217E+01
   .23771E+02   .82686E+02  -.68211E+01
   .23772E+02   .82094E+02  -.68207E+01
   .23773E+02   .81344E+02  -.68203E+01
   .23773E+02   .80609E+02  -.68200E+01
   .23774E+02   .79632E+02  -.68197E+01
   .23774E+02   .78246E+02  -.68194E+01
   .23775E+02   .76085E+02  -.68191E+01
   .23775E+02   .73788E+02  -.68189E+01
   .23776E+02   .70013E+02  -.68187E+01
   .23776E+02   .62549E+02  -.68185E+01
   .23777E+02   .49214E+02  -.68184E+01
   .23777E+02   .68882E+02  -.76650E+02
   .23777E+02   .84360E+02  -.12320E+03
   .23778E+02   .11948E+03  -.68179E+01
   .23778E+02   .10929E+03  -.68178E+01
   .23778E+02   .10157E+03  -.68176E+01
   .23778E+02   .97308E+02  -.68175E+01
   .23779E+02   .94543E+02  -.68173E+01
   .23779E+02   .93129E+02  -.68172E+01
   .23779E+02   .91380E+02  -.68171E+01
   .23779E+02   .89817E+02  -.68169E+01
   .23780E+02   .88118E+02  -.68168E+01
   .23780E+02   .88000E+02  -.77469E+01
   .23780E+02   .87876E+02  -.86771E+01
   .23780E+02   .87580E+02  -.11467E+02
   .23781E+02   .86991E+02  -.77285E+01
   .23781E+02   .87659E+02  -.13939E+02
   .23781E+02   .89066E+02  -.94851E+01
   .23782E+02   .88512E+02  -.95015E+01
   .23782E+02   .88131E+02  -.95180E+01
   .23783E+02   .87943E+02  -.95303E+01
   .23783E+02   .87756E+02  -.95468E+01
   .23783E+02   .87680E+02  -.95531E+01
   .23784E+02   .87580E+02  -.95626E+01
   .23784E+02   .87523E+02  -.95690E+01
   .23784E+02   .87446E+02  -.95785E+01
   .23785E+02   .87340E+02  -.95944E+01
   .23785E+02   .87255E+02  -.96103E+01
   .23785E+02   .87185E+02  -.96242E+01
   .23786E+02   .87127E+02  -.96382E+01
   .23787E+02   .87080E+02  -.96521E+01
   .23787E+02   .87042E+02  -.96661E+01
   .23788E+02   .86985E+02  -.96895E+01
   .23789E+02   .86950E+02  -.97130E+01
   .23790E+02   .86930E+02  -.97305E+01
   .23791E+02   .86921E+02  -.97481E+01
   .23792E+02   .86922E+02  -.97595E+01
   .23793E+02   .86928E+02  -.97709E+01
   .23795E+02   .86947E+02  -.97801E+01
   .23796E+02   .86972E+02  -.97836E+01
   .23798E+02   .87008E+02  -.97812E+01
   .23800E+02   .87047E+02  -.97727E+01
   .23802E+02   .87075E+02  -.97631E+01
   .23803E+02   .87100E+02  -.97534E+01
   .23805E+02   .87133E+02  -.97392E+01
   .23807E+02   .87162E+02  -.97249E+01
   .23809E+02   .87182E+02  -.97155E+01
   .23810E+02   .87201E+02  -.97061E+01
   .23812E+02   .87224E+02  -.96967E+01
   .23814E+02   .87246E+02  -.96873E+01
   .23816E+02   .87267E+02  -.96818E+01
   .23818E+02   .87288E+02  -.96763E+01
   .23822E+02   .87328E+02  -.96719E+01
   .23825E+02   .87358E+02  -.96717E+01
   .23833E+02   .87444E+02  -.96768E+01
   .23840E+02   .87521E+02  -.96800E+01
   .23845E+02   .87575E+02  -.96781E+01
   .23850E+02   .87626E+02  -.96761E+01
   .23855E+02   .87675E+02  -.96712E+01
   .23860E+02   .87719E+02  -.96663E+01
   .23868E+02   .87785E+02  -.96614E+01
   .23875E+02   .87839E+02  -.96571E+01
   .23883E+02   .87898E+02  -.96522E+01
   .23890E+02   .87946E+02  -.96479E+01
   .23900E+02   .88010E+02  -.96427E+01
   .23910E+02   .88071E+02  -.96376E+01
   .23925E+02   .88155E+02  -.96298E+01
   .23940E+02   .88231E+02  -.96221E+01
   .23955E+02   .88302E+02  -.96140E+01
   .23970E+02   .88367E+02  -.96058E+01
   .23985E+02   .88427E+02  -.95977E+01
   .24000E+02   .88483E+02  -.95895E+01
   .24020E+02   .88552E+02  -.95770E+01
   .24050E+02   .88644E+02  -.95581E+01
   .24070E+02   .88699E+02  -.95456E+01
   .24090E+02   .88748E+02  -.95330E+01
   .24110E+02   .88794E+02  -.95209E+01
   .24140E+02   .88855E+02  -.95027E+01
   .24160E+02   .88891E+02  -.94905E+01
   .24190E+02   .88940E+02  -.94722E+01
   .24210E+02   .88968E+02  -.94598E+01
   .24240E+02   .89005E+02  -.94412E+01
   .24260E+02   .89026E+02  -.94288E+01
   .24290E+02   .89051E+02  -.94101E+01
   .24310E+02   .89063E+02  -.93977E+01
   .24340E+02   .89075E+02  -.93791E+01
   .24370E+02   .89078E+02  -.93605E+01
   .24400E+02   .89071E+02  -.93418E+01
   .24420E+02   .89059E+02  -.93298E+01
   .24435E+02   .89046E+02  -.93208E+01
   .24450E+02   .89029E+02  -.93118E+01
   .24460E+02   .89014E+02  -.93057E+01
   .24470E+02   .88997E+02  -.92997E+01
   .24485E+02   .88966E+02  -.92907E+01
   .24500E+02   .88925E+02  -.92817E+01
   .24510E+02   .88893E+02  -.92757E+01
   .24520E+02   .88854E+02  -.92696E+01
   .24528E+02   .88817E+02  -.92648E+01
   .24535E+02   .88779E+02  -.92606E+01
   .24543E+02   .88729E+02  -.92558E+01
   .24550E+02   .88677E+02  -.92516E+01
   .24555E+02   .88633E+02  -.92486E+01
   .24560E+02   .88584E+02  -.92456E+01
   .24565E+02   .88525E+02  -.92426E+01
   .24568E+02   .88485E+02  -.92408E+01
   .24570E+02   .88455E+02  -.92396E+01
   .24574E+02   .88388E+02  -.92372E+01
   .24577E+02   .88329E+02  -.92353E+01
   .24581E+02   .88233E+02  -.92329E+01
   .24583E+02   .88191E+02  -.92320E+01
   .24584E+02   .88143E+02  -.92311E+01
   .24586E+02   .88071E+02  -.92299E+01
   .24588E+02   .87984E+02  -.92287E+01
   .24590E+02   .87905E+02  -.92278E+01
   .24590E+02   .87857E+02  -.92273E+01
   .24591E+02   .87810E+02  -.92269E+01
   .24591E+02   .87788E+02  -.92267E+01
   .24591E+02   .87773E+02  -.92266E+01
   .24592E+02   .87758E+02  -.92265E+01
   .24592E+02   .87714E+02  -.92263E+01
   .24592E+02   .87707E+02  -.92262E+01
   .24593E+02   .87691E+02  -.92260E+01
   .24593E+02   .87673E+02  -.92259E+01
   .24593E+02   .87643E+02  -.92257E+01
   .24594E+02   .87591E+02  -.92254E+01
   .24594E+02   .87533E+02  -.92251E+01
   .24595E+02   .87391E+02  -.92245E+01
   .24596E+02   .87196E+02  -.92239E+01
   .24597E+02   .86896E+02  -.92233E+01
   .24598E+02   .86537E+02  -.92229E+01
   .24598E+02   .85698E+02  -.92225E+01
   .24598E+02   .85717E+02  -.97331E+01
   .24599E+02   .85798E+02  -.10244E+02
   .24599E+02   .85859E+02  -.10754E+02
   .24599E+02   .85946E+02  -.11776E+02
   .24599E+02   .85599E+02  -.92219E+01
   .24600E+02   .85016E+02  -.92218E+01
   .24600E+02   .87125E+02  -.18891E+02
   .24601E+02   .89881E+02  -.92212E+01
   .24601E+02   .88372E+02  -.92210E+01
   .24601E+02   .87277E+02  -.92208E+01
   .24602E+02   .87131E+02  -.11985E+02
   .24602E+02   .87154E+02  -.95561E+01
   .24602E+02   .87338E+02  -.97996E+01
   .24603E+02   .87600E+02  -.12690E+02
   .24603E+02   .88352E+02  -.10731E+02
   .24604E+02   .88246E+02  -.10722E+02
   .24604E+02   .88209E+02  -.10718E+02
   .24604E+02   .88179E+02  -.10712E+02
   .24604E+02   .88168E+02  -.10708E+02
   .24604E+02   .88161E+02  -.10703E+02
   .24605E+02   .88160E+02  -.10697E+02
   .24605E+02   .88161E+02  -.10693E+02
   .24605E+02   .88164E+02  -.10689E+02
   .24605E+02   .88168E+02  -.10686E+02
   .24606E+02   .88180E+02  -.10679E+02
   .24607E+02   .88194E+02  -.10671E+02
   .24607E+02   .88208E+02  -.10664E+02
   .24607E+02   .88216E+02  -.10661E+02
   .24608E+02   .88228E+02  -.10657E+02
   .24608E+02   .88252E+02  -.10648E+02
   .24609E+02   .88274E+02  -.10641E+02
   .24610E+02   .88293E+02  -.10635E+02
   .24611E+02   .88318E+02  -.10629E+02
   .24612E+02   .88342E+02  -.10624E+02
   .24613E+02   .88366E+02  -.10618E+02
   .24614E+02   .88387E+02  -.10612E+02
   .24615E+02   .88417E+02  -.10609E+02
   .24617E+02   .88445E+02  -.10606E+02
   .24618E+02   .88473E+02  -.10604E+02
   .24620E+02   .88498E+02  -.10602E+02
   .24623E+02   .88547E+02  -.10604E+02
   .24627E+02   .88608E+02  -.10607E+02
   .24630E+02   .88652E+02  -.10609E+02
   .24632E+02   .88680E+02  -.10610E+02
   .24635E+02   .88720E+02  -.10612E+02
   .24640E+02   .88784E+02  -.10614E+02
   .24645E+02   .88843E+02  -.10611E+02
   .24650E+02   .88897E+02  -.10608E+02
   .24655E+02   .88946E+02  -.10604E+02
   .24660E+02   .88990E+02  -.10599E+02
   .24665E+02   .89030E+02  -.10595E+02
   .24670E+02   .89069E+02  -.10590E+02
   .24678E+02   .89125E+02  -.10585E+02
   .24685E+02   .89171E+02  -.10581E+02
   .24693E+02   .89220E+02  -.10576E+02
   .24700E+02   .89260E+02  -.10572E+02
   .24710E+02   .89315E+02  -.10565E+02
   .24720E+02   .89367E+02  -.10559E+02
   .24735E+02   .89439E+02  -.10550E+02
   .24750E+02   .89505E+02  -.10540E+02
   .24765E+02   .89566E+02  -.10531E+02
   .24780E+02   .89623E+02  -.10522E+02
   .24800E+02   .89695E+02  -.10510E+02
   .24830E+02   .89794E+02  -.10491E+02
   .24850E+02   .89855E+02  -.10479E+02
   .24880E+02   .89941E+02  -.10461E+02
   .24900E+02   .89995E+02  -.10449E+02
   .24920E+02   .90047E+02  -.10436E+02
   .24950E+02   .90121E+02  -.10417E+02
   .24970E+02   .90168E+02  -.10405E+02
   .25000E+02   .90236E+02  -.10386E+02
   .25030E+02   .90300E+02  -.10367E+02
   .25070E+02   .90381E+02  -.10343E+02
   .25110E+02   .90458E+02  -.10318E+02
   .25150E+02   .90531E+02  -.10293E+02
   .25190E+02   .90601E+02  -.10269E+02
   .25230E+02   .90669E+02  -.10244E+02
   .25270E+02   .90733E+02  -.10219E+02
   .25300E+02   .90780E+02  -.10201E+02
   .25350E+02   .90854E+02  -.10171E+02
   .25400E+02   .90925E+02  -.10141E+02
   .25450E+02   .90993E+02  -.10111E+02
   .25500E+02   .91058E+02  -.10082E+02
   .25550E+02   .91120E+02  -.10052E+02
   .25600E+02   .91180E+02  -.10022E+02
   .25700E+02   .91296E+02  -.99625E+01
   .25770E+02   .91373E+02  -.99228E+01
   .25850E+02   .91458E+02  -.98774E+01
   .25920E+02   .91529E+02  -.98377E+01
   .26000E+02   .91606E+02  -.97923E+01
   .26100E+02   .91699E+02  -.97372E+01
   .26200E+02   .91787E+02  -.96821E+01
   .26300E+02   .91872E+02  -.96270E+01
   .26400E+02   .91953E+02  -.95719E+01
   .26470E+02   .92008E+02  -.95341E+01
   .26550E+02   .92068E+02  -.94909E+01
   .26630E+02   .92126E+02  -.94477E+01
   .26700E+02   .92176E+02  -.94099E+01
   .26800E+02   .92245E+02  -.93575E+01
   .26900E+02   .92311E+02  -.93052E+01
   .27000E+02   .92374E+02  -.92528E+01
   .27100E+02   .92436E+02  -.92004E+01
   .27200E+02   .92495E+02  -.91495E+01
   .27300E+02   .92553E+02  -.90986E+01
   .27390E+02   .92602E+02  -.90528E+01
   .27470E+02   .92646E+02  -.90121E+01
   .27600E+02   .92713E+02  -.89480E+01
   .27700E+02   .92763E+02  -.88987E+01
   .27800E+02   .92812E+02  -.88494E+01
   .27880E+02   .92850E+02  -.88111E+01
   .27950E+02   .92882E+02  -.87776E+01
   .28100E+02   .92950E+02  -.87057E+01
   .28250E+02   .93014E+02  -.86363E+01
   .28400E+02   .93076E+02  -.85669E+01
   .28550E+02   .93137E+02  -.84975E+01
   .28630E+02   .93168E+02  -.84605E+01
   .28700E+02   .93194E+02  -.84281E+01
   .28800E+02   .93231E+02  -.83839E+01
   .28900E+02   .93267E+02  -.83396E+01
   .29000E+02   .93301E+02  -.82954E+01
   .29100E+02   .93335E+02  -.82512E+01
   .29250E+02   .93384E+02  -.81849E+01
   .29400E+02   .93432E+02  -.81186E+01
   .29550E+02   .93477E+02  -.80551E+01
   .29700E+02   .93521E+02  -.79916E+01
   .29850E+02   .93562E+02  -.79297E+01
   .29920E+02   .93582E+02  -.79009E+01
   .30000E+02   .93603E+02  -.78679E+01
   .30200E+02   .93655E+02  -.77880E+01
   .30400E+02   .93704E+02  -.77080E+01
   .30600E+02   .93751E+02  -.76307E+01
   .30800E+02   .93796E+02  -.75534E+01
   .31000E+02   .93839E+02  -.74787E+01
   .31200E+02   .93881E+02  -.74039E+01
   .31350E+02   .93910E+02  -.73494E+01
   .31500E+02   .93939E+02  -.72949E+01
   .31700E+02   .93976E+02  -.72243E+01
   .31900E+02   .94011E+02  -.71536E+01
   .32100E+02   .94045E+02  -.70852E+01
   .32300E+02   .94078E+02  -.70168E+01
   .32450E+02   .94101E+02  -.69669E+01
   .32600E+02   .94124E+02  -.69170E+01
   .32800E+02   .94154E+02  -.68522E+01
   .33000E+02   .94182E+02  -.67875E+01
   .33200E+02   .94209E+02  -.67255E+01
   .33400E+02   .94235E+02  -.66636E+01
   .33600E+02   .94260E+02  -.66016E+01
   .33800E+02   .94285E+02  -.65397E+01
   .33950E+02   .94302E+02  -.64955E+01
   .34100E+02   .94320E+02  -.64513E+01
   .34300E+02   .94342E+02  -.63924E+01
   .34500E+02   .94363E+02  -.63335E+01
   .34700E+02   .94383E+02  -.62773E+01
   .34900E+02   .94403E+02  -.62211E+01
   .35000E+02   .94413E+02  -.61930E+01
   .35100E+02   .94422E+02  -.61649E+01
   .35200E+02   .94432E+02  -.61368E+01
   .35300E+02   .94440E+02  -.61087E+01
   .35400E+02   .94449E+02  -.60819E+01
   .35500E+02   .94458E+02  -.60551E+01
   .35600E+02   .94466E+02  -.60283E+01
   .35700E+02   .94474E+02  -.60014E+01
   .35800E+02   .94482E+02  -.59746E+01
   .35900E+02   .94490E+02  -.59478E+01
   .36030E+02   .94500E+02  -.59130E+01
   .36160E+02   .94509E+02  -.58796E+01
   .36300E+02   .94519E+02  -.58436E+01
   .36400E+02   .94526E+02  -.58179E+01
   .36500E+02   .94533E+02  -.57923E+01
   .36650E+02   .94543E+02  -.57549E+01
   .36800E+02   .94553E+02  -.57176E+01
   .36900E+02   .94559E+02  -.56927E+01
   .37000E+02   .94565E+02  -.56679E+01
   .37150E+02   .94574E+02  -.56318E+01
   .37300E+02   .94582E+02  -.55958E+01
   .37400E+02   .94588E+02  -.55717E+01
   .37500E+02   .94593E+02  -.55477E+01
   .37800E+02   .94609E+02  -.54781E+01
   .38000E+02   .94619E+02  -.54317E+01
   .38150E+02   .94626E+02  -.53978E+01
   .38300E+02   .94633E+02  -.53639E+01
   .38400E+02   .94638E+02  -.53413E+01
   .38500E+02   .94642E+02  -.53187E+01
   .38800E+02   .94654E+02  -.52532E+01
   .39000E+02   .94662E+02  -.52095E+01
   .39300E+02   .94673E+02  -.51462E+01
   .39500E+02   .94679E+02  -.51040E+01
   .39800E+02   .94689E+02  -.50427E+01
   .40000E+02   .94695E+02  -.50018E+01
   .40200E+02   .94700E+02  -.49628E+01
   .40400E+02   .94705E+02  -.49238E+01
   .40600E+02   .94710E+02  -.48848E+01
   .40800E+02   .94715E+02  -.48457E+01
   .41100E+02   .94722E+02  -.47900E+01
   .41500E+02   .94730E+02  -.47156E+01
   .41900E+02   .94737E+02  -.46446E+01
   .42300E+02   .94744E+02  -.45736E+01
   .42600E+02   .94748E+02  -.45228E+01
   .43000E+02   .94753E+02  -.44550E+01
   .43400E+02   .94758E+02  -.43899E+01
   .43800E+02   .94762E+02  -.43248E+01
   .44100E+02   .94764E+02  -.42781E+01
   .44500E+02   .94767E+02  -.42158E+01
   .44900E+02   .94769E+02  -.41560E+01
   .45300E+02   .94771E+02  -.40962E+01
   .45600E+02   .94772E+02  -.40529E+01
   .46000E+02   .94773E+02  -.39952E+01
   .46300E+02   .94773E+02  -.39534E+01
   .46500E+02   .94773E+02  -.39255E+01
   .47000E+02   .94772E+02  -.38578E+01
   .47500E+02   .94771E+02  -.37928E+01
   .48000E+02   .94769E+02  -.37279E+01
   .48500E+02   .94766E+02  -.36663E+01
   .49000E+02   .94763E+02  -.36047E+01
   .49500E+02   .94760E+02  -.35455E+01
   .50000E+02   .94756E+02  -.34879E+01
   .50500E+02   .94752E+02  -.34324E+01
   .51000E+02   .94747E+02  -.33768E+01
   .51500E+02   .94742E+02  -.33241E+01
   .52000E+02   .94737E+02  -.32713E+01
   .52500E+02   .94731E+02  -.32212E+01
   .53000E+02   .94725E+02  -.31710E+01
   .54000E+02   .94713E+02  -.30756E+01
   .55000E+02   .94699E+02  -.29847E+01
   .56000E+02   .94686E+02  -.28975E+01
   .56800E+02   .94674E+02  -.28306E+01
   .57530E+02   .94663E+02  -.27717E+01
   .58000E+02   .94656E+02  -.27348E+01
   .58500E+02   .94648E+02  -.26964E+01
   .59540E+02   .94631E+02  -.26193E+01
   .59800E+02   .94627E+02  -.26005E+01
   .60000E+02   .94624E+02  -.25863E+01
   .60800E+02   .94610E+02  -.25302E+01
   .61500E+02   .94599E+02  -.24827E+01
   .62300E+02   .94585E+02  -.24302E+01
   .63000E+02   .94573E+02  -.23856E+01
   .64000E+02   .94556E+02  -.23242E+01
   .65000E+02   .94538E+02  -.22654E+01
   .65900E+02   .94523E+02  -.22141E+01
   .66830E+02   .94506E+02  -.21632E+01
   .67400E+02   .94496E+02  -.21328E+01
   .68000E+02   .94485E+02  -.21016E+01
   .69000E+02   .94467E+02  -.20512E+01
   .70000E+02   .94449E+02  -.20027E+01
   .71000E+02   .94431E+02  -.19559E+01
   .72000E+02   .94413E+02  -.19107E+01
   .73500E+02   .94385E+02  -.18460E+01
   .74960E+02   .94358E+02  -.17864E+01
   .75400E+02   .94350E+02  -.17690E+01
   .75900E+02   .94341E+02  -.17496E+01
   .76864E+02   .94323E+02  -.17131E+01
   .77110E+02   .94319E+02  -.17040E+01
   .78600E+02   .94291E+02  -.16503E+01
   .79300E+02   .94278E+02  -.16261E+01
   .80000E+02   .94265E+02  -.16024E+01
   .81500E+02   .94237E+02  -.15533E+01
   .83000E+02   .94208E+02  -.15065E+01
   .84000E+02   .94189E+02  -.14765E+01
   .85000E+02   .94170E+02  -.14475E+01
   .86500E+02   .94141E+02  -.14057E+01
   .88000E+02   .94112E+02  -.13658E+01
   .89000E+02   .94092E+02  -.13401E+01
   .90000E+02   .94072E+02  -.13153E+01
   .91500E+02   .94042E+02  -.12792E+01
   .93000E+02   .94011E+02  -.12448E+01
   .94000E+02   .93991E+02  -.12226E+01
   .95000E+02   .93969E+02  -.12010E+01
   .96500E+02   .93937E+02  -.11698E+01
   .98000E+02   .93904E+02  -.11399E+01
   .99000E+02   .93881E+02  -.11206E+01
   .99500E+02   .93869E+02  -.11112E+01
   .10000E+03   .93858E+02  -.11018E+01
   .10100E+03   .93834E+02  -.10838E+01
   .10200E+03   .93810E+02  -.10657E+01
   .10300E+03   .93785E+02  -.10486E+01
   .10400E+03   .93759E+02  -.10314E+01
   .10500E+03   .93732E+02  -.10151E+01
   .10600E+03   .93705E+02  -.99887E+00
   .10700E+03   .93676E+02  -.98339E+00
   .10800E+03   .93647E+02  -.96792E+00
   .10900E+03   .93616E+02  -.95320E+00
   .11000E+03   .93584E+02  -.93848E+00
   .11100E+03   .93550E+02  -.92445E+00
   .11200E+03   .93514E+02  -.91043E+00
   .11280E+03   .93484E+02  -.89968E+00
   .11350E+03   .93457E+02  -.89027E+00
   .11430E+03   .93425E+02  -.87989E+00
   .11500E+03   .93395E+02  -.87080E+00
   .11550E+03   .93372E+02  -.86458E+00
   .11600E+03   .93349E+02  -.85835E+00
   .11650E+03   .93325E+02  -.85212E+00
   .11700E+03   .93300E+02  -.84589E+00
   .11750E+03   .93274E+02  -.83995E+00
   .11800E+03   .93247E+02  -.83400E+00
   .11850E+03   .93218E+02  -.82806E+00
   .11900E+03   .93189E+02  -.82211E+00
   .11940E+03   .93164E+02  -.81754E+00
   .11980E+03   .93137E+02  -.81297E+00
   .12020E+03   .93110E+02  -.80840E+00
   .12050E+03   .93089E+02  -.80497E+00
   .12090E+03   .93059E+02  -.80055E+00
   .12130E+03   .93028E+02  -.79613E+00
   .12170E+03   .92995E+02  -.79171E+00
   .12200E+03   .92969E+02  -.78840E+00
   .12250E+03   .92924E+02  -.78308E+00
   .12280E+03   .92895E+02  -.77989E+00
   .12300E+03   .92874E+02  -.77776E+00
   .12330E+03   .92842E+02  -.77457E+00
   .12350E+03   .92820E+02  -.77245E+00
   .12380E+03   .92785E+02  -.76926E+00
   .12400E+03   .92761E+02  -.76713E+00
   .12430E+03   .92722E+02  -.76407E+00
   .12450E+03   .92695E+02  -.76204E+00
   .12480E+03   .92652E+02  -.75898E+00
   .12500E+03   .92622E+02  -.75694E+00
   .12530E+03   .92573E+02  -.75389E+00
   .12550E+03   .92538E+02  -.75185E+00
   .12580E+03   .92482E+02  -.74880E+00
   .12600E+03   .92441E+02  -.74676E+00
   .12620E+03   .92398E+02  -.74478E+00
   .12640E+03   .92352E+02  -.74281E+00
   .12660E+03   .92301E+02  -.74083E+00
   .12680E+03   .92247E+02  -.73885E+00
   .12690E+03   .92218E+02  -.73788E+00
   .12700E+03   .92187E+02  -.73691E+00
   .12710E+03   .92155E+02  -.73593E+00
   .12720E+03   .92121E+02  -.73496E+00
   .12730E+03   .92085E+02  -.73399E+00
   .12740E+03   .92047E+02  -.73302E+00
   .12750E+03   .92007E+02  -.73205E+00
   .12760E+03   .91964E+02  -.73108E+00
   .12770E+03   .91918E+02  -.73012E+00
   .12780E+03   .91869E+02  -.72916E+00
   .12790E+03   .91816E+02  -.72820E+00
   .12800E+03   .91757E+02  -.72724E+00
   .12805E+03   .91726E+02  -.72676E+00
   .12810E+03   .91693E+02  -.72628E+00
   .12815E+03   .91659E+02  -.72581E+00
   .12820E+03   .91623E+02  -.72533E+00
   .12825E+03   .91584E+02  -.72486E+00
   .12830E+03   .91543E+02  -.72438E+00
   .12835E+03   .91499E+02  -.72391E+00
   .12840E+03   .91453E+02  -.72343E+00
   .12845E+03   .91403E+02  -.72296E+00
   .12850E+03   .91348E+02  -.72248E+00
   .12855E+03   .91289E+02  -.72201E+00
   .12860E+03   .91224E+02  -.72154E+00
   .12863E+03   .91181E+02  -.72126E+00
   .12865E+03   .91151E+02  -.72107E+00
   .12867E+03   .91119E+02  -.72088E+00
   .12870E+03   .91069E+02  -.72060E+00
   .12872E+03   .91033E+02  -.72041E+00
   .12875E+03   .90974E+02  -.72013E+00
   .12878E+03   .90908E+02  -.71984E+00
   .12880E+03   .90859E+02  -.71965E+00
   .12881E+03   .90832E+02  -.71956E+00
   .12882E+03   .90803E+02  -.71947E+00
   .12883E+03   .90781E+02  -.71940E+00
   .12884E+03   .90753E+02  -.71933E+00
   .12884E+03   .90726E+02  -.71926E+00
   .12885E+03   .90707E+02  -.71922E+00
   .12885E+03   .90686E+02  -.71919E+00
   .12885E+03   .90666E+02  -.71916E+00
   .12885E+03   .90649E+02  -.71914E+00
   .12886E+03   .90633E+02  -.71912E+00
   .12886E+03   .90583E+02  -.71911E+00
   .12886E+03   .90581E+02  -.71910E+00
   .12886E+03   .90578E+02  -.83015E+00
   .12886E+03   .90575E+02  -.83015E+00
   .12886E+03   .90612E+02  -.83014E+00
   .12886E+03   .90619E+02  -.83014E+00
   .12887E+03   .90624E+02  -.83013E+00
   .12887E+03   .90633E+02  -.83013E+00
   .12887E+03   .90636E+02  -.83012E+00
   .12887E+03   .90638E+02  -.83011E+00
   .12888E+03   .90636E+02  -.83009E+00
   .12888E+03   .90629E+02  -.83007E+00
   .12889E+03   .90616E+02  -.83005E+00
   .12890E+03   .90603E+02  -.83003E+00
   .12891E+03   .90581E+02  -.83000E+00
   .12892E+03   .90556E+02  -.82997E+00
   .12893E+03   .90514E+02  -.82992E+00
   .12895E+03   .90467E+02  -.82987E+00
   .12896E+03   .90432E+02  -.82985E+00
   .12897E+03   .90394E+02  -.82981E+00
   .12899E+03   .90331E+02  -.82977E+00
   .12900E+03   .90261E+02  -.82972E+00
   .12901E+03   .90225E+02  -.82970E+00
   .12901E+03   .90180E+02  -.82968E+00
   .12902E+03   .90138E+02  -.82966E+00
   .12903E+03   .90087E+02  -.82963E+00
   .12904E+03   .90031E+02  -.82961E+00
   .12904E+03   .89977E+02  -.82959E+00
   .12905E+03   .89909E+02  -.82956E+00
   .12906E+03   .89843E+02  -.82954E+00
   .12907E+03   .89757E+02  -.82952E+00
   .12907E+03   .89710E+02  -.82950E+00
   .12907E+03   .89672E+02  -.82949E+00
   .12908E+03   .89617E+02  -.82948E+00
   .12908E+03   .89558E+02  -.82947E+00
   .12909E+03   .89492E+02  -.82946E+00
   .12909E+03   .89438E+02  -.82945E+00
   .12909E+03   .89399E+02  -.82944E+00
   .12910E+03   .89337E+02  -.82943E+00
   .12910E+03   .89267E+02  -.82942E+00
   .12910E+03   .89216E+02  -.82942E+00
   .12910E+03   .89132E+02  -.82941E+00
   .12910E+03   .89069E+02  -.82940E+00
   .12911E+03   .88961E+02  -.82939E+00
   .12911E+03   .88877E+02  -.82939E+00
   .12911E+03   .88781E+02  -.82938E+00
   .12911E+03   .88668E+02  -.82938E+00
   .12912E+03   .88583E+02  -.82937E+00
   .12912E+03   .88452E+02  -.82937E+00
   .12912E+03   .88255E+02  -.82936E+00
   .12912E+03   .87976E+02  -.82935E+00
   .12912E+03   .87512E+02  -.82935E+00
   .12912E+03   .87065E+02  -.82934E+00
   .12912E+03   .87186E+02  -.82934E+00
   .12913E+03   .87581E+02  -.82934E+00
   .12913E+03   .87860E+02  -.53482E+01
   .12913E+03   .88453E+02  -.12428E+01
   .12913E+03   .87974E+02  -.17984E+01
   .12913E+03   .87955E+02  -.29973E+01
   .12913E+03   .88344E+02  -.29706E+01
   .12914E+03   .88674E+02  -.29440E+01
   .12914E+03   .88810E+02  -.29178E+01
   .12914E+03   .88911E+02  -.29088E+01
   .12914E+03   .88995E+02  -.28999E+01
   .12915E+03   .89065E+02  -.28910E+01
   .12915E+03   .89124E+02  -.28873E+01
   .12915E+03   .89177E+02  -.28887E+01
   .12915E+03   .89228E+02  -.28902E+01
   .12915E+03   .89274E+02  -.28916E+01
   .12915E+03   .89317E+02  -.28961E+01
   .12916E+03   .89359E+02  -.29006E+01
   .12916E+03   .89420E+02  -.29073E+01
   .12916E+03   .89495E+02  -.29130E+01
   .12917E+03   .89564E+02  -.29188E+01
   .12917E+03   .89630E+02  -.29217E+01
   .12918E+03   .89675E+02  -.29216E+01
   .12918E+03   .89730E+02  -.29206E+01
   .12918E+03   .89782E+02  -.29197E+01
   .12919E+03   .89829E+02  -.29172E+01
   .12919E+03   .89861E+02  -.29153E+01
   .12919E+03   .89901E+02  -.29137E+01
   .12920E+03   .89939E+02  -.29121E+01
   .12920E+03   .89974E+02  -.29117E+01
   .12921E+03   .89999E+02  -.29113E+01
   .12921E+03   .90062E+02  -.29120E+01
   .12922E+03   .90113E+02  -.29135E+01
   .12923E+03   .90182E+02  -.29132E+01
   .12924E+03   .90245E+02  -.29129E+01
   .12925E+03   .90304E+02  -.29126E+01
   .12926E+03   .90356E+02  -.29123E+01
   .12927E+03   .90395E+02  -.29121E+01
   .12927E+03   .90428E+02  -.29120E+01
   .12929E+03   .90493E+02  -.29117E+01
   .12931E+03   .90571E+02  -.29113E+01
   .12933E+03   .90642E+02  -.29109E+01
   .12935E+03   .90706E+02  -.29104E+01
   .12937E+03   .90765E+02  -.29099E+01
   .12938E+03   .90806E+02  -.29095E+01
   .12940E+03   .90845E+02  -.29091E+01
   .12941E+03   .90882E+02  -.29086E+01
   .12943E+03   .90917E+02  -.29081E+01
   .12945E+03   .90962E+02  -.29074E+01
   .12947E+03   .91003E+02  -.29067E+01
   .12950E+03   .91061E+02  -.29057E+01
   .12953E+03   .91115E+02  -.29050E+01
   .12955E+03   .91148E+02  -.29046E+01
   .12958E+03   .91196E+02  -.29039E+01
   .12960E+03   .91226E+02  -.29034E+01
   .12964E+03   .91283E+02  -.29020E+01
   .12968E+03   .91337E+02  -.29005E+01
   .12971E+03   .91374E+02  -.28995E+01
   .12975E+03   .91421E+02  -.28981E+01
   .12979E+03   .91465E+02  -.28967E+01
   .12983E+03   .91507E+02  -.28952E+01
   .12987E+03   .91546E+02  -.28938E+01
   .12990E+03   .91574E+02  -.28928E+01
   .12995E+03   .91618E+02  -.28917E+01
   .13000E+03   .91659E+02  -.28907E+01
   .13005E+03   .91699E+02  -.28897E+01
   .13010E+03   .91738E+02  -.28886E+01
   .13018E+03   .91795E+02  -.28854E+01
   .13025E+03   .91842E+02  -.28827E+01
   .13033E+03   .91892E+02  -.28795E+01
   .13040E+03   .91934E+02  -.28767E+01
   .13045E+03   .91962E+02  -.28747E+01
   .13050E+03   .91989E+02  -.28727E+01
   .13060E+03   .92039E+02  -.28687E+01
   .13070E+03   .92085E+02  -.28655E+01
   .13080E+03   .92130E+02  -.28623E+01
   .13090E+03   .92172E+02  -.28592E+01
   .13100E+03   .92211E+02  -.28560E+01
   .13115E+03   .92267E+02  -.28513E+01
   .13130E+03   .92320E+02  -.28466E+01
   .13140E+03   .92354E+02  -.28434E+01
   .13150E+03   .92386E+02  -.28402E+01
   .13165E+03   .92432E+02  -.28355E+01
   .13180E+03   .92475E+02  -.28308E+01
   .13190E+03   .92502E+02  -.28276E+01
   .13200E+03   .92529E+02  -.28245E+01
   .13215E+03   .92566E+02  -.28189E+01
   .13230E+03   .92602E+02  -.28133E+01
   .13240E+03   .92625E+02  -.28096E+01
   .13250E+03   .92647E+02  -.28059E+01
   .13280E+03   .92709E+02  -.27959E+01
   .13300E+03   .92747E+02  -.27892E+01
   .13330E+03   .92801E+02  -.27812E+01
   .13350E+03   .92836E+02  -.27758E+01
   .13380E+03   .92885E+02  -.27676E+01
   .13400E+03   .92917E+02  -.27621E+01
   .13430E+03   .92962E+02  -.27537E+01
   .13450E+03   .92991E+02  -.27481E+01
   .13480E+03   .93033E+02  -.27397E+01
   .13500E+03   .93060E+02  -.27341E+01
   .13530E+03   .93098E+02  -.27245E+01
   .13550E+03   .93123E+02  -.27180E+01
   .13580E+03   .93158E+02  -.27083E+01
   .13600E+03   .93180E+02  -.27019E+01
   .13630E+03   .93213E+02  -.26923E+01
   .13650E+03   .93233E+02  -.26858E+01
   .13680E+03   .93263E+02  -.26762E+01
   .13700E+03   .93283E+02  -.26698E+01
   .13730E+03   .93310E+02  -.26604E+01
   .13750E+03   .93328E+02  -.26541E+01
   .13780E+03   .93354E+02  -.26446E+01
   .13800E+03   .93371E+02  -.26384E+01
   .13850E+03   .93410E+02  -.26237E+01
   .13900E+03   .93448E+02  -.26091E+01
   .13950E+03   .93484E+02  -.25954E+01
   .14000E+03   .93518E+02  -.25817E+01
   .14050E+03   .93550E+02  -.25685E+01
   .14100E+03   .93582E+02  -.25553E+01
   .14150E+03   .93612E+02  -.25424E+01
   .14200E+03   .93641E+02  -.25296E+01
   .14250E+03   .93669E+02  -.25167E+01
   .14300E+03   .93696E+02  -.25038E+01
   .14360E+03   .93727E+02  -.24883E+01
   .14420E+03   .93756E+02  -.24729E+01
   .14480E+03   .93785E+02  -.24574E+01
   .14540E+03   .93812E+02  -.24419E+01
   .14570E+03   .93825E+02  -.24342E+01
   .14600E+03   .93838E+02  -.24265E+01
   .14670E+03   .93867E+02  -.24086E+01
   .14730E+03   .93890E+02  -.23936E+01
   .14800E+03   .93917E+02  -.23761E+01
   .14850E+03   .93935E+02  -.23637E+01
   .14900E+03   .93952E+02  -.23513E+01
   .14950E+03   .93969E+02  -.23390E+01
   .14980E+03   .93979E+02  -.23317E+01
   .15000E+03   .93986E+02  -.23269E+01
   .15050E+03   .94002E+02  -.23150E+01
   .15100E+03   .94017E+02  -.23031E+01
   .15150E+03   .94032E+02  -.22912E+01
   .15200E+03   .94046E+02  -.22793E+01
   .15250E+03   .94061E+02  -.22678E+01
   .15300E+03   .94074E+02  -.22563E+01
   .15350E+03   .94088E+02  -.22448E+01
   .15400E+03   .94101E+02  -.22333E+01
   .15500E+03   .94125E+02  -.22111E+01
   .15600E+03   .94149E+02  -.21888E+01
   .15700E+03   .94171E+02  -.21673E+01
   .15800E+03   .94192E+02  -.21458E+01
   .15900E+03   .94212E+02  -.21253E+01
   .16000E+03   .94231E+02  -.21049E+01
   .16100E+03   .94249E+02  -.20851E+01
   .16200E+03   .94267E+02  -.20653E+01
   .16280E+03   .94280E+02  -.20501E+01
   .16350E+03   .94291E+02  -.20368E+01
   .16430E+03   .94304E+02  -.20216E+01
   .16500E+03   .94315E+02  -.20082E+01
   .16600E+03   .94329E+02  -.19899E+01
   .16700E+03   .94343E+02  -.19717E+01
   .16800E+03   .94357E+02  -.19539E+01
   .16900E+03   .94370E+02  -.19362E+01
   .17000E+03   .94382E+02  -.19189E+01
   .17100E+03   .94394E+02  -.19017E+01
   .17200E+03   .94406E+02  -.18850E+01
   .17300E+03   .94417E+02  -.18683E+01
   .17400E+03   .94427E+02  -.18520E+01
   .17500E+03   .94438E+02  -.18358E+01
   .17600E+03   .94448E+02  -.18200E+01
   .17700E+03   .94457E+02  -.18042E+01
   .17780E+03   .94464E+02  -.17921E+01
   .17850E+03   .94471E+02  -.17814E+01
   .17930E+03   .94478E+02  -.17692E+01
   .18000E+03   .94484E+02  -.17586E+01
   .18080E+03   .94490E+02  -.17467E+01
   .18150E+03   .94496E+02  -.17364E+01
   .18230E+03   .94502E+02  -.17246E+01
   .18300E+03   .94507E+02  -.17142E+01
   .18400E+03   .94515E+02  -.17000E+01
   .18500E+03   .94522E+02  -.16857E+01
   .18650E+03   .94532E+02  -.16650E+01
   .18800E+03   .94541E+02  -.16443E+01
   .18900E+03   .94547E+02  -.16309E+01
   .19000E+03   .94553E+02  -.16176E+01
   .19150E+03   .94561E+02  -.15985E+01
   .19300E+03   .94568E+02  -.15793E+01
   .19400E+03   .94573E+02  -.15670E+01
   .19500E+03   .94578E+02  -.15546E+01
   .19650E+03   .94585E+02  -.15367E+01
   .19800E+03   .94592E+02  -.15188E+01
   .19900E+03   .94596E+02  -.15072E+01
   .20000E+03   .94600E+02  -.14956E+01
