    E(keV)         f1           f2     
   .10000E+01   .54473E+02  -.33262E+02
   .10100E+01   .54771E+02  -.33002E+02
   .10200E+01   .55041E+02  -.32742E+02
   .10250E+01   .55162E+02  -.32612E+02
   .10300E+01   .55267E+02  -.32482E+02
   .10360E+01   .55355E+02  -.32326E+02
   .10410E+01   .55339E+02  -.32195E+02
   .10430E+01   .55240E+02  -.32145E+02
   .10460E+01   .25778E+02  -.32070E+02
   .10460E+01   .55354E+02  -.13392E+03
   .10460E+01   .84931E+02  -.32069E+02
   .10467E+01   .56173E+02  -.32050E+02
   .10475E+01   .51018E+02  -.32032E+02
   .10475E+01   .55668E+02  -.48115E+02
   .10475E+01   .60317E+02  -.32031E+02
   .10477E+01   .55846E+02  -.32025E+02
   .10480E+01   .53358E+02  -.32019E+02
   .10480E+01   .55647E+02  -.40013E+02
   .10480E+01   .57935E+02  -.32018E+02
   .10482E+01   .55741E+02  -.32015E+02
   .10483E+01   .53913E+02  -.32011E+02
   .10483E+01   .55618E+02  -.38041E+02
   .10483E+01   .57322E+02  -.32010E+02
   .10484E+01   .55710E+02  -.32008E+02
   .10485E+01   .54586E+02  -.32006E+02
   .10485E+01   .55469E+02  -.35335E+02
   .10486E+01   .56343E+02  -.32005E+02
   .10486E+01   .55679E+02  -.32004E+02
   .10486E+01   .55392E+02  -.32004E+02
   .10486E+01   .55068E+02  -.32003E+02
   .10486E+01   .54813E+02  -.32003E+02
   .10487E+01   .54449E+02  -.32002E+02
   .10487E+01   .54479E+02  -.32003E+02
   .10487E+01   .54929E+02  -.32049E+02
   .10487E+01   .55354E+02  -.35721E+02
   .10487E+01   .55810E+02  -.34040E+02
   .10487E+01   .56166E+02  -.32358E+02
   .10487E+01   .55700E+02  -.32466E+02
   .10487E+01   .55610E+02  -.32466E+02
   .10488E+01   .55352E+02  -.32465E+02
   .10488E+01   .55002E+02  -.32465E+02
   .10488E+01   .55592E+02  -.34754E+02
   .10488E+01   .56166E+02  -.32464E+02
   .10488E+01   .55762E+02  -.32463E+02
   .10489E+01   .55388E+02  -.32463E+02
   .10489E+01   .55732E+02  -.34106E+02
   .10489E+01   .56062E+02  -.32461E+02
   .10489E+01   .55859E+02  -.32461E+02
   .10489E+01   .55693E+02  -.32461E+02
   .10489E+01   .55856E+02  -.33630E+02
   .10489E+01   .56031E+02  -.32460E+02
   .10490E+01   .55824E+02  -.32460E+02
   .10490E+01   .55599E+02  -.32459E+02
   .10490E+01   .55963E+02  -.34183E+02
   .10490E+01   .56243E+02  -.32458E+02
   .10490E+01   .56004E+02  -.32458E+02
   .10490E+01   .55782E+02  -.32458E+02
   .10491E+01   .55941E+02  -.33569E+02
   .10491E+01   .56096E+02  -.32456E+02
   .10491E+01   .55951E+02  -.32456E+02
   .10491E+01   .56001E+02  -.33572E+02
   .10491E+01   .56127E+02  -.32455E+02
   .10491E+01   .55963E+02  -.32455E+02
   .10492E+01   .56147E+02  -.33589E+02
   .10492E+01   .56332E+02  -.32454E+02
   .10492E+01   .56285E+02  -.33077E+02
   .10492E+01   .56366E+02  -.32452E+02
   .10497E+01   .55946E+02  -.32440E+02
   .10501E+01   .55915E+02  -.32430E+02
   .10505E+01   .55909E+02  -.32420E+02
   .10510E+01   .55913E+02  -.32407E+02
   .10520E+01   .55937E+02  -.32381E+02
   .10530E+01   .55968E+02  -.32355E+02
   .10550E+01   .56037E+02  -.32303E+02
   .10570E+01   .56108E+02  -.32251E+02
   .10610E+01   .56246E+02  -.32147E+02
   .10650E+01   .56378E+02  -.32044E+02
   .10720E+01   .56597E+02  -.31862E+02
   .10800E+01   .56832E+02  -.31655E+02
   .10900E+01   .57107E+02  -.31411E+02
   .11000E+01   .57365E+02  -.31167E+02
   .11187E+01   .57815E+02  -.30710E+02
   .11340E+01   .58148E+02  -.30347E+02
   .11420E+01   .58306E+02  -.30157E+02
   .11500E+01   .58453E+02  -.29967E+02
   .11600E+01   .58618E+02  -.29739E+02
   .11700E+01   .58749E+02  -.29511E+02
   .11740E+01   .58784E+02  -.29420E+02
   .11790E+01   .58798E+02  -.29306E+02
   .11820E+01   .58775E+02  -.29238E+02
   .11840E+01   .58728E+02  -.29192E+02
   .11860E+01   .58613E+02  -.29147E+02
   .11882E+01   .57661E+02  -.29096E+02
   .11883E+01   .57778E+02  -.29679E+02
   .11883E+01   .57892E+02  -.29095E+02
   .11884E+01   .57411E+02  -.29092E+02
   .11886E+01   .56414E+02  -.29089E+02
   .11886E+01   .56343E+02  -.29664E+02
   .11886E+01   .56220E+02  -.29088E+02
   .11887E+01   .54269E+02  -.29086E+02
   .11888E+01   .46228E+02  -.29085E+02
   .11888E+01   .58257E+02  -.76012E+02
   .11888E+01   .70283E+02  -.29084E+02
   .11889E+01   .60323E+02  -.29081E+02
   .11890E+01   .56343E+02  -.29078E+02
   .11891E+01   .59774E+02  -.42797E+02
   .11891E+01   .63215E+02  -.29077E+02
   .11897E+01   .58914E+02  -.29065E+02
   .11902E+01   .54796E+02  -.29052E+02
   .11902E+01   .58311E+02  -.43052E+02
   .11903E+01   .61794E+02  -.29051E+02
   .11903E+01   .60133E+02  -.29051E+02
   .11903E+01   .58816E+02  -.29050E+02
   .11903E+01   .59713E+02  -.33704E+02
   .11904E+01   .60701E+02  -.29049E+02
   .11905E+01   .59218E+02  -.29047E+02
   .11906E+01   .58774E+02  -.29045E+02
   .11907E+01   .58290E+02  -.29042E+02
   .11908E+01   .56444E+02  -.29040E+02
   .11908E+01   .58499E+02  -.37286E+02
   .11908E+01   .60657E+02  -.29039E+02
   .11908E+01   .59688E+02  -.29038E+02
   .11909E+01   .59236E+02  -.29038E+02
   .11909E+01   .59051E+02  -.29038E+02
   .11909E+01   .58882E+02  -.29038E+02
   .11909E+01   .58713E+02  -.29037E+02
   .11909E+01   .58535E+02  -.29084E+02
   .11909E+01   .58310E+02  -.29246E+02
   .11909E+01   .58226E+02  -.29378E+02
   .11909E+01   .58211E+02  -.29507E+02
   .11910E+01   .58154E+02  -.29626E+02
   .11910E+01   .58176E+02  -.29625E+02
   .11910E+01   .58151E+02  -.29625E+02
   .11910E+01   .57905E+02  -.29625E+02
   .11910E+01   .57297E+02  -.29624E+02
   .11910E+01   .57797E+02  -.29624E+02
   .11911E+01   .58873E+02  -.33966E+02
   .11911E+01   .59959E+02  -.29623E+02
   .11911E+01   .58992E+02  -.29622E+02
   .11912E+01   .58227E+02  -.29621E+02
   .11912E+01   .58808E+02  -.32195E+02
   .11912E+01   .59497E+02  -.29620E+02
   .11912E+01   .59033E+02  -.29619E+02
   .11912E+01   .58734E+02  -.29619E+02
   .11913E+01   .58821E+02  -.29619E+02
   .11913E+01   .58970E+02  -.30824E+02
   .11913E+01   .59115E+02  -.30064E+02
   .11913E+01   .59256E+02  -.29618E+02
   .11913E+01   .59233E+02  -.29618E+02
   .11913E+01   .59038E+02  -.29617E+02
   .11913E+01   .58775E+02  -.29617E+02
   .11913E+01   .59218E+02  -.31536E+02
   .11914E+01   .59577E+02  -.29616E+02
   .11914E+01   .59362E+02  -.29616E+02
   .11914E+01   .59117E+02  -.29616E+02
   .11914E+01   .59343E+02  -.30991E+02
   .11914E+01   .59439E+02  -.29615E+02
   .11914E+01   .59615E+02  -.29615E+02
   .11915E+01   .59532E+02  -.30175E+02
   .11915E+01   .59546E+02  -.29614E+02
   .11915E+01   .59489E+02  -.29877E+02
   .11915E+01   .59478E+02  -.29612E+02
   .11919E+01   .59134E+02  -.29604E+02
   .11923E+01   .59095E+02  -.29595E+02
   .11927E+01   .59090E+02  -.29586E+02
   .11930E+01   .59093E+02  -.29579E+02
   .11940E+01   .59121E+02  -.29556E+02
   .11950E+01   .59156E+02  -.29534E+02
   .11970E+01   .59228E+02  -.29489E+02
   .11990E+01   .59297E+02  -.29443E+02
   .12030E+01   .59424E+02  -.29353E+02
   .12060E+01   .59491E+02  -.29285E+02
   .12130E+01   .59697E+02  -.29127E+02
   .12200E+01   .59870E+02  -.28969E+02
   .12300E+01   .60096E+02  -.28751E+02
   .12400E+01   .60305E+02  -.28534E+02
   .12470E+01   .60444E+02  -.28385E+02
   .12540E+01   .60578E+02  -.28237E+02
   .12700E+01   .60872E+02  -.27907E+02
   .12900E+01   .61212E+02  -.27495E+02
   .13050E+01   .61450E+02  -.27197E+02
   .13200E+01   .61677E+02  -.26899E+02
   .13500E+01   .62097E+02  -.26324E+02
   .13800E+01   .62478E+02  -.25762E+02
   .14100E+01   .62826E+02  -.25218E+02
   .14400E+01   .63141E+02  -.24691E+02
   .14700E+01   .63428E+02  -.24180E+02
   .14850E+01   .63561E+02  -.23932E+02
   .15000E+01   .63688E+02  -.23684E+02
   .15300E+01   .63923E+02  -.23199E+02
   .15700E+01   .64199E+02  -.22581E+02
   .16100E+01   .64437E+02  -.21982E+02
   .16500E+01   .64639E+02  -.21413E+02
   .16900E+01   .64811E+02  -.20865E+02
   .17300E+01   .64954E+02  -.20343E+02
   .17700E+01   .65074E+02  -.19838E+02
   .18000E+01   .65147E+02  -.19474E+02
   .18200E+01   .65188E+02  -.19239E+02
   .18500E+01   .65236E+02  -.18886E+02
   .19000E+01   .65291E+02  -.18330E+02
   .19500E+01   .65313E+02  -.17797E+02
   .20000E+01   .65304E+02  -.17289E+02
   .20300E+01   .65282E+02  -.16993E+02
   .20700E+01   .65234E+02  -.16612E+02
   .21100E+01   .65166E+02  -.16247E+02
   .21300E+01   .65126E+02  -.16071E+02
   .21496E+01   .65083E+02  -.15900E+02
   .21800E+01   .65006E+02  -.15641E+02
   .22100E+01   .64916E+02  -.15385E+02
   .22400E+01   .64815E+02  -.15145E+02
   .22700E+01   .64701E+02  -.14904E+02
   .23000E+01   .64577E+02  -.14676E+02
   .23400E+01   .64392E+02  -.14372E+02
   .23700E+01   .64235E+02  -.14156E+02
   .24000E+01   .64066E+02  -.13940E+02
   .24300E+01   .63882E+02  -.13733E+02
   .24600E+01   .63681E+02  -.13527E+02
   .24900E+01   .63463E+02  -.13330E+02
   .25100E+01   .63307E+02  -.13199E+02
   .25400E+01   .63058E+02  -.13010E+02
   .25700E+01   .62787E+02  -.12821E+02
   .26000E+01   .62492E+02  -.12641E+02
   .26210E+01   .62271E+02  -.12514E+02
   .26220E+01   .62260E+02  -.12509E+02
   .26230E+01   .62249E+02  -.12503E+02
   .26500E+01   .61943E+02  -.12347E+02
   .26700E+01   .61700E+02  -.12231E+02
   .26900E+01   .61442E+02  -.12119E+02
   .27100E+01   .61167E+02  -.12007E+02
   .27300E+01   .60874E+02  -.11899E+02
   .27500E+01   .60561E+02  -.11790E+02
   .27700E+01   .60225E+02  -.11685E+02
   .28000E+01   .59675E+02  -.11529E+02
   .28200E+01   .59271E+02  -.11427E+02
   .28500E+01   .58599E+02  -.11275E+02
   .28600E+01   .58355E+02  -.11226E+02
   .28700E+01   .58099E+02  -.11177E+02
   .28850E+01   .57690E+02  -.11104E+02
   .29000E+01   .57249E+02  -.11030E+02
   .29100E+01   .56935E+02  -.10983E+02
   .29200E+01   .56602E+02  -.10936E+02
   .29350E+01   .56063E+02  -.10866E+02
   .29500E+01   .55470E+02  -.10796E+02
   .29580E+01   .55126E+02  -.10759E+02
   .29650E+01   .54809E+02  -.10728E+02
   .29730E+01   .54424E+02  -.10692E+02
   .29800E+01   .54066E+02  -.10660E+02
   .29900E+01   .53514E+02  -.10615E+02
   .30000E+01   .52907E+02  -.10570E+02
   .30050E+01   .52579E+02  -.10547E+02
   .30100E+01   .52232E+02  -.10525E+02
   .30150E+01   .51864E+02  -.10502E+02
   .30200E+01   .51473E+02  -.10479E+02
   .30280E+01   .50791E+02  -.10444E+02
   .30350E+01   .50125E+02  -.10413E+02
   .30390E+01   .49710E+02  -.10396E+02
   .30430E+01   .49266E+02  -.10378E+02
   .30470E+01   .48788E+02  -.10360E+02
   .30500E+01   .48404E+02  -.10347E+02
   .30540E+01   .47854E+02  -.10330E+02
   .30580E+01   .47235E+02  -.10313E+02
   .30620E+01   .46587E+02  -.10296E+02
   .30650E+01   .46040E+02  -.10283E+02
   .30690E+01   .45231E+02  -.10266E+02
   .30720E+01   .44553E+02  -.10253E+02
   .30740E+01   .44060E+02  -.10245E+02
   .30760E+01   .43528E+02  -.10236E+02
   .30780E+01   .42952E+02  -.10227E+02
   .30800E+01   .42323E+02  -.10219E+02
   .30820E+01   .41633E+02  -.10210E+02
   .30840E+01   .40870E+02  -.10202E+02
   .30855E+01   .40241E+02  -.10196E+02
   .30870E+01   .39554E+02  -.10189E+02
   .30890E+01   .38528E+02  -.10181E+02
   .30910E+01   .37349E+02  -.10172E+02
   .30925E+01   .36335E+02  -.10166E+02
   .30933E+01   .35739E+02  -.10162E+02
   .30940E+01   .35181E+02  -.10159E+02
   .30950E+01   .34316E+02  -.10155E+02
   .30960E+01   .33357E+02  -.10151E+02
   .30970E+01   .32287E+02  -.10146E+02
   .30980E+01   .31080E+02  -.10142E+02
   .30987E+01   .30137E+02  -.10139E+02
   .30995E+01   .28940E+02  -.10136E+02
   .31003E+01   .27588E+02  -.10132E+02
   .31010E+01   .26252E+02  -.10129E+02
   .31018E+01   .24504E+02  -.10126E+02
   .31025E+01   .22733E+02  -.10123E+02
   .31029E+01   .21597E+02  -.10121E+02
   .31033E+01   .20352E+02  -.10120E+02
   .31036E+01   .19336E+02  -.10118E+02
   .31040E+01   .17855E+02  -.10116E+02
   .31045E+01   .15763E+02  -.10114E+02
   .31050E+01   .13337E+02  -.10112E+02
   .31055E+01   .10482E+02  -.10110E+02
   .31060E+01   .70601E+01  -.10108E+02
   .31064E+01   .37807E+01  -.10106E+02
   .31066E+01   .19119E+01  -.10105E+02
   .31068E+01  -.14438E+00  -.10105E+02
   .31070E+01  -.24210E+01  -.10104E+02
   .31072E+01  -.49570E+01  -.10103E+02
   .31074E+01  -.78132E+01  -.10102E+02
   .31077E+01  -.12536E+02  -.10101E+02
   .31077E+01  -.12714E+02  -.10157E+02
   .31077E+01  -.13053E+02  -.10268E+02
   .31077E+01  -.13572E+02  -.10436E+02
   .31078E+01  -.14665E+02  -.10100E+02
   .31080E+01  -.18739E+02  -.10099E+02
   .31082E+01  -.24864E+02  -.10099E+02
   .31082E+01  -.23826E+02  -.18727E+02
   .31083E+01  -.22869E+02  -.10098E+02
   .31084E+01  -.28044E+02  -.10098E+02
   .31086E+01  -.35434E+02  -.10097E+02
   .31087E+01  -.40824E+02  -.10096E+02
   .31089E+01  -.46530E+02  -.10096E+02
   .31090E+01  -.53633E+02  -.10095E+02
   .31091E+01  -.61406E+02  -.10095E+02
   .31092E+01  -.69029E+02  -.10094E+02
   .31093E+01  -.78035E+02  -.10094E+02
   .31094E+01  -.84329E+02  -.10094E+02
   .31094E+01  -.92857E+02  -.10094E+02
   .31095E+01  -.96313E+02  -.11576E+02
   .31095E+01  -.99995E+02  -.13059E+02
   .31095E+01  -.10834E+03  -.10093E+02
   .31096E+01  -.12801E+03  -.10093E+02
   .31098E+01  -.15618E+03  -.10092E+02
   .31098E+01  -.16861E+03  -.32341E+02
   .31099E+01  -.18661E+03  -.10092E+02
   .31099E+01  -.19773E+03  -.10092E+02
   .31099E+01  -.21006E+03  -.10092E+02
   .31100E+01  -.25623E+03  -.11445E+02
   .31100E+01  -.34220E+03  -.10091E+02
   .31100E+01  -.36476E+03  -.10091E+02
   .31101E+01  -.29192E+03  -.42399E+03
   .31102E+01  -.27132E+03  -.10090E+02
   .31102E+01  -.31251E+03  -.10090E+02
   .31102E+01  -.40093E+03  -.10090E+02
   .31103E+01  -.33586E+03  -.66318E+03
   .31103E+01  -.35140E+03  -.10090E+02
   .31103E+01  -.43907E+03  -.10090E+02
   .31103E+01  -.53466E+03  -.10090E+02
   .31104E+01  -.28891E+03  -.15283E+04
   .31105E+01  -.15795E+03  -.10089E+02
   .31105E+01   .23119E+03  -.22505E+04
   .31106E+01   .55157E+03  -.10089E+02
   .31106E+01   .67091E+03  -.10089E+02
   .31106E+01   .79749E+03  -.10089E+02
   .31106E+01   .61366E+03  -.51523E+03
   .31107E+01   .55473E+03  -.10088E+02
   .31107E+01   .45275E+03  -.10088E+02
   .31108E+01   .36821E+03  -.10088E+02
   .31108E+01   .32337E+03  -.10088E+02
   .31109E+01   .27721E+03  -.10088E+02
   .31109E+01   .24917E+03  -.10087E+02
   .31109E+01   .21749E+03  -.10087E+02
   .31110E+01   .19011E+03  -.10087E+02
   .31110E+01   .16531E+03  -.10087E+02
   .31110E+01   .14745E+03  -.10087E+02
   .31111E+01   .12330E+03  -.10087E+02
   .31111E+01   .93364E+02  -.10087E+02
   .31112E+01   .56919E+02  -.12959E+02
   .31112E+01   .47812E+02  -.35053E+02
   .31112E+01   .39718E+02  -.95383E+02
   .31113E+01   .34212E+02  -.20208E+03
   .31113E+01   .50999E+02  -.23118E+03
   .31113E+01   .11578E+03  -.20562E+03
   .31114E+01   .14541E+03  -.18074E+03
   .31114E+01   .15588E+03  -.15947E+03
   .31114E+01   .16069E+03  -.14265E+03
   .31115E+01   .16198E+03  -.13240E+03
   .31115E+01   .16191E+03  -.12065E+03
   .31116E+01   .16068E+03  -.11079E+03
   .31116E+01   .15876E+03  -.10240E+03
   .31116E+01   .15699E+03  -.97007E+02
   .31117E+01   .15436E+03  -.90688E+02
   .31117E+01   .15166E+03  -.85286E+02
   .31117E+01   .14888E+03  -.80515E+02
   .31118E+01   .14679E+03  -.77315E+02
   .31118E+01   .14402E+03  -.73494E+02
   .31119E+01   .14134E+03  -.70107E+02
   .31119E+01   .13872E+03  -.67120E+02
   .31119E+01   .13679E+03  -.65054E+02
   .31120E+01   .13433E+03  -.62542E+02
   .31120E+01   .13194E+03  -.60278E+02
   .31121E+01   .12965E+03  -.58246E+02
   .31121E+01   .12800E+03  -.56828E+02
   .31121E+01   .12586E+03  -.55079E+02
   .31122E+01   .12380E+03  -.53476E+02
   .31122E+01   .12183E+03  -.52006E+02
   .31122E+01   .11994E+03  -.50676E+02
   .31123E+01   .11813E+03  -.49433E+02
   .31123E+01   .11682E+03  -.48554E+02
   .31123E+01   .11512E+03  -.47454E+02
   .31124E+01   .11390E+03  -.46700E+02
   .31124E+01   .11232E+03  -.45746E+02
   .31125E+01   .11081E+03  -.44846E+02
   .31125E+01   .10934E+03  -.44003E+02
   .31125E+01   .10828E+03  -.43417E+02
   .31126E+01   .10691E+03  -.42676E+02
   .31126E+01   .10560E+03  -.41975E+02
   .31126E+01   .10432E+03  -.41320E+02
   .31127E+01   .10340E+03  -.40852E+02
   .31127E+01   .10220E+03  -.40262E+02
   .31128E+01   .10106E+03  -.39710E+02
   .31128E+01   .99940E+02  -.39185E+02
   .31128E+01   .98600E+02  -.38567E+02
   .31129E+01   .97316E+02  -.37988E+02
   .31130E+01   .96087E+02  -.37453E+02
   .31130E+01   .94904E+02  -.36946E+02
   .31131E+01   .93108E+02  -.36207E+02
   .31131E+01   .91628E+02  -.35614E+02
   .31132E+01   .90219E+02  -.35072E+02
   .31133E+01   .88700E+02  -.34503E+02
   .31133E+01   .87798E+02  -.34176E+02
   .31134E+01   .86919E+02  -.33865E+02
   .31135E+01   .85260E+02  -.33291E+02
   .31136E+01   .83710E+02  -.32772E+02
   .31137E+01   .82976E+02  -.32540E+02
   .31137E+01   .82259E+02  -.32308E+02
   .31138E+01   .81304E+02  -.32014E+02
   .31139E+01   .80248E+02  -.31698E+02
   .31139E+01   .79377E+02  -.31439E+02
   .31140E+01   .78413E+02  -.31164E+02
   .31141E+01   .77277E+02  -.30851E+02
   .31142E+01   .76204E+02  -.30566E+02
   .31144E+01   .74709E+02  -.30186E+02
   .31145E+01   .73330E+02  -.29855E+02
   .31147E+01   .72052E+02  -.29567E+02
   .31148E+01   .70872E+02  -.29316E+02
   .31149E+01   .70138E+02  -.29164E+02
   .31150E+01   .69428E+02  -.29022E+02
   .31152E+01   .68115E+02  -.28780E+02
   .31154E+01   .66920E+02  -.28579E+02
   .31156E+01   .65828E+02  -.28410E+02
   .31158E+01   .64827E+02  -.28267E+02
   .31160E+01   .64138E+02  -.28180E+02
   .31161E+01   .63478E+02  -.28103E+02
   .31165E+01   .61920E+02  -.27948E+02
   .31168E+01   .60905E+02  -.27868E+02
   .31172E+01   .59724E+02  -.27806E+02
   .31176E+01   .58712E+02  -.27774E+02
   .31180E+01   .57840E+02  -.27765E+02
   .31183E+01   .57265E+02  -.27773E+02
   .31185E+01   .56915E+02  -.27779E+02
   .31190E+01   .56147E+02  -.27803E+02
   .31195E+01   .55504E+02  -.27838E+02
   .31200E+01   .54968E+02  -.27872E+02
   .31208E+01   .54283E+02  -.27919E+02
   .31215E+01   .53828E+02  -.27944E+02
   .31223E+01   .53428E+02  -.27954E+02
   .31230E+01   .53154E+02  -.27947E+02
   .31235E+01   .52995E+02  -.27924E+02
   .31240E+01   .52860E+02  -.27901E+02
   .31250E+01   .52644E+02  -.27825E+02
   .31265E+01   .52400E+02  -.27674E+02
   .31280E+01   .52222E+02  -.27499E+02
   .31290E+01   .52123E+02  -.27381E+02
   .31300E+01   .52032E+02  -.27263E+02
   .31315E+01   .51918E+02  -.27110E+02
   .31330E+01   .51820E+02  -.26957E+02
   .31340E+01   .51760E+02  -.26878E+02
   .31350E+01   .51708E+02  -.26799E+02
   .31380E+01   .51606E+02  -.26621E+02
   .31400E+01   .51570E+02  -.26531E+02
   .31430E+01   .51568E+02  -.26418E+02
   .31450E+01   .51598E+02  -.26344E+02
   .31480E+01   .51655E+02  -.26223E+02
   .31500E+01   .51702E+02  -.26143E+02
   .31530E+01   .51769E+02  -.26002E+02
   .31550E+01   .51807E+02  -.25908E+02
   .31580E+01   .51849E+02  -.25766E+02
   .31600E+01   .51867E+02  -.25670E+02
   .31630E+01   .51875E+02  -.25537E+02
   .31650E+01   .51869E+02  -.25449E+02
   .31700E+01   .51828E+02  -.25271E+02
   .31730E+01   .51791E+02  -.25177E+02
   .31770E+01   .51726E+02  -.25078E+02
   .31832E+01   .51605E+02  -.24945E+02
   .31880E+01   .51491E+02  -.24851E+02
   .31920E+01   .51371E+02  -.24773E+02
   .31960E+01   .51223E+02  -.24695E+02
   .32000E+01   .51042E+02  -.24618E+02
   .32050E+01   .50761E+02  -.24523E+02
   .32100E+01   .50401E+02  -.24429E+02
   .32150E+01   .49946E+02  -.24344E+02
   .32180E+01   .49618E+02  -.24294E+02
   .32200E+01   .49368E+02  -.24260E+02
   .32230E+01   .48945E+02  -.24218E+02
   .32250E+01   .48625E+02  -.24190E+02
   .32280E+01   .48074E+02  -.24148E+02
   .32300E+01   .47647E+02  -.24120E+02
   .32330E+01   .46896E+02  -.24082E+02
   .32350E+01   .46302E+02  -.24057E+02
   .32380E+01   .45221E+02  -.24019E+02
   .32400E+01   .44329E+02  -.23994E+02
   .32420E+01   .43245E+02  -.23969E+02
   .32430E+01   .42610E+02  -.23957E+02
   .32440E+01   .41896E+02  -.23945E+02
   .32450E+01   .41088E+02  -.23932E+02
   .32460E+01   .40162E+02  -.23920E+02
   .32470E+01   .39089E+02  -.23907E+02
   .32480E+01   .37829E+02  -.23895E+02
   .32490E+01   .36322E+02  -.23883E+02
   .32500E+01   .34483E+02  -.23870E+02
   .32505E+01   .33400E+02  -.23864E+02
   .32510E+01   .32179E+02  -.23858E+02
   .32515E+01   .30788E+02  -.23852E+02
   .32520E+01   .29188E+02  -.23845E+02
   .32525E+01   .27325E+02  -.23839E+02
   .32530E+01   .25123E+02  -.23833E+02
   .32535E+01   .22474E+02  -.23827E+02
   .32540E+01   .19215E+02  -.23820E+02
   .32545E+01   .15094E+02  -.23814E+02
   .32549E+01   .10892E+02  -.23809E+02
   .32551E+01   .83687E+01  -.23807E+02
   .32553E+01   .54606E+01  -.23804E+02
   .32555E+01   .20066E+01  -.23802E+02
   .32558E+01  -.52506E+01  -.23799E+02
   .32558E+01  -.51065E+01  -.26511E+02
   .32558E+01  -.46314E+01  -.29223E+02
   .32558E+01  -.39329E+01  -.33292E+02
   .32559E+01  -.27164E+01  -.23797E+02
   .32560E+01  -.62743E+01  -.23796E+02
   .32561E+01  -.90113E+01  -.23795E+02
   .32561E+01  -.11003E+02  -.24539E+02
   .32562E+01  -.13064E+02  -.23793E+02
   .32564E+01  -.18611E+02  -.23792E+02
   .32565E+01  -.24945E+02  -.23790E+02
   .32566E+01  -.30368E+02  -.23788E+02
   .32567E+01  -.36655E+02  -.23787E+02
   .32569E+01  -.46324E+02  -.23785E+02
   .32570E+01  -.58603E+02  -.23783E+02
   .32571E+01  -.72202E+02  -.23782E+02
   .32572E+01  -.90517E+02  -.23780E+02
   .32573E+01  -.97208E+02  -.25553E+02
   .32573E+01  -.10275E+03  -.26882E+02
   .32574E+01  -.11570E+03  -.23779E+02
   .32574E+01  -.13640E+03  -.23778E+02
   .32575E+01  -.16398E+03  -.23777E+02
   .32576E+01  -.20490E+03  -.23776E+02
   .32576E+01  -.28496E+03  -.23775E+02
   .32577E+01  -.24738E+03  -.32407E+03
   .32578E+01  -.23876E+03  -.23774E+02
   .32578E+01  -.41158E+03  -.23773E+02
   .32579E+01  -.74482E+03  -.23772E+02
   .32580E+01  -.27933E+03  -.19614E+04
   .32580E+01   .23857E+02  -.23771E+02
   .32580E+01   .64033E+02  -.23771E+02
   .32581E+01   .25014E+03  -.17174E+04
   .32582E+01   .55526E+03  -.23769E+02
   .32582E+01   .45956E+03  -.23769E+02
   .32582E+01   .40027E+03  -.29557E+03
   .32583E+01   .40319E+03  -.65797E+03
   .32583E+01   .43192E+03  -.34087E+03
   .32583E+01   .46994E+03  -.23767E+02
   .32583E+01   .43268E+03  -.23767E+02
   .32583E+01   .39341E+03  -.23767E+02
   .32584E+01   .33014E+03  -.12800E+03
   .32584E+01   .30895E+03  -.20617E+03
   .32584E+01   .29893E+03  -.13321E+03
   .32585E+01   .28677E+03  -.23765E+02
   .32585E+01   .29324E+03  -.23765E+02
   .32585E+01   .29495E+03  -.23765E+02
   .32585E+01   .26875E+03  -.14808E+03
   .32586E+01   .25381E+03  -.27708E+02
   .32586E+01   .22258E+03  -.34878E+02
   .32587E+01   .19826E+03  -.47333E+02
   .32587E+01   .18791E+03  -.64355E+02
   .32587E+01   .18340E+03  -.67220E+02
   .32588E+01   .18346E+03  -.64368E+02
   .32588E+01   .17829E+03  -.61836E+02
   .32589E+01   .17305E+03  -.59619E+02
   .32589E+01   .16796E+03  -.57653E+02
   .32589E+01   .16199E+03  -.55531E+02
   .32590E+01   .15648E+03  -.53712E+02
   .32590E+01   .15142E+03  -.52101E+02
   .32591E+01   .14678E+03  -.50683E+02
   .32592E+01   .14248E+03  -.49440E+02
   .32592E+01   .13854E+03  -.48350E+02
   .32592E+01   .13491E+03  -.47320E+02
   .32593E+01   .13153E+03  -.46436E+02
   .32594E+01   .12841E+03  -.45632E+02
   .32594E+01   .12550E+03  -.44877E+02
   .32594E+01   .12278E+03  -.44217E+02
   .32595E+01   .12024E+03  -.43609E+02
   .32596E+01   .11787E+03  -.43040E+02
   .32596E+01   .11564E+03  -.42530E+02
   .32596E+01   .11354E+03  -.42058E+02
   .32597E+01   .11157E+03  -.41615E+02
   .32597E+01   .11044E+03  -.41375E+02
   .32598E+01   .10900E+03  -.41056E+02
   .32599E+01   .10629E+03  -.40484E+02
   .32599E+01   .10381E+03  -.39978E+02
   .32600E+01   .10180E+03  -.39574E+02
   .32601E+01   .99666E+02  -.39165E+02
   .32601E+01   .97938E+02  -.38836E+02
   .32602E+01   .96312E+02  -.38537E+02
   .32603E+01   .94583E+02  -.38222E+02
   .32604E+01   .92577E+02  -.37870E+02
   .32605E+01   .90741E+02  -.37557E+02
   .32606E+01   .89040E+02  -.37278E+02
   .32607E+01   .87470E+02  -.37027E+02
   .32608E+01   .85325E+02  -.36700E+02
   .32610E+01   .83402E+02  -.36419E+02
   .32611E+01   .82221E+02  -.36255E+02
   .32612E+01   .81117E+02  -.36105E+02
   .32613E+01   .79587E+02  -.35910E+02
   .32615E+01   .78190E+02  -.35741E+02
   .32617E+01   .76518E+02  -.35552E+02
   .32620E+01   .74329E+02  -.35332E+02
   .32622E+01   .73055E+02  -.35219E+02
   .32625E+01   .71361E+02  -.35089E+02
   .32627E+01   .70365E+02  -.35025E+02
   .32630E+01   .69026E+02  -.34956E+02
   .32632E+01   .68233E+02  -.34925E+02
   .32635E+01   .67156E+02  -.34896E+02
   .32640E+01   .65643E+02  -.34885E+02
   .32645E+01   .64402E+02  -.34906E+02
   .32650E+01   .63376E+02  -.34947E+02
   .32660E+01   .61818E+02  -.35059E+02
   .32670E+01   .60729E+02  -.35176E+02
   .32680E+01   .59963E+02  -.35272E+02
   .32690E+01   .59420E+02  -.35335E+02
   .32700E+01   .59036E+02  -.35362E+02
   .32710E+01   .58758E+02  -.35359E+02
   .32720E+01   .58555E+02  -.35328E+02
   .32730E+01   .58402E+02  -.35277E+02
   .32740E+01   .58285E+02  -.35213E+02
   .32750E+01   .58190E+02  -.35138E+02
   .32760E+01   .58113E+02  -.35064E+02
   .32770E+01   .58052E+02  -.34988E+02
   .32780E+01   .58001E+02  -.34912E+02
   .32800E+01   .57926E+02  -.34776E+02
   .32820E+01   .57884E+02  -.34661E+02
   .32840E+01   .57871E+02  -.34567E+02
   .32860E+01   .57885E+02  -.34487E+02
   .32900E+01   .57991E+02  -.34356E+02
   .32940E+01   .58158E+02  -.34222E+02
   .32980E+01   .58360E+02  -.34089E+02
   .33020E+01   .58570E+02  -.33933E+02
   .33050E+01   .58720E+02  -.33816E+02
   .33090E+01   .58912E+02  -.33668E+02
   .33130E+01   .59088E+02  -.33520E+02
   .33170E+01   .59254E+02  -.33401E+02
   .33200E+01   .59376E+02  -.33312E+02
   .33280E+01   .59705E+02  -.33126E+02
   .33350E+01   .59998E+02  -.32981E+02
   .33430E+01   .60332E+02  -.32821E+02
   .33500E+01   .60613E+02  -.32680E+02
   .33600E+01   .60995E+02  -.32499E+02
   .33700E+01   .61350E+02  -.32318E+02
   .33800E+01   .61694E+02  -.32162E+02
   .33900E+01   .62027E+02  -.32007E+02
   .33980E+01   .62287E+02  -.31888E+02
   .34050E+01   .62507E+02  -.31784E+02
   .34200E+01   .62955E+02  -.31565E+02
   .34350E+01   .63375E+02  -.31354E+02
   .34500E+01   .63767E+02  -.31143E+02
   .34650E+01   .64138E+02  -.30940E+02
   .34800E+01   .64485E+02  -.30737E+02
   .35000E+01   .64913E+02  -.30472E+02
   .35144E+01   .65197E+02  -.30281E+02
   .35300E+01   .65485E+02  -.30081E+02
   .35500E+01   .65819E+02  -.29825E+02
   .35650E+01   .66047E+02  -.29632E+02
   .35800E+01   .66254E+02  -.29440E+02
   .35950E+01   .66439E+02  -.29256E+02
   .36100E+01   .66603E+02  -.29072E+02
   .36250E+01   .66743E+02  -.28888E+02
   .36400E+01   .66859E+02  -.28704E+02
   .36550E+01   .66944E+02  -.28525E+02
   .36630E+01   .66974E+02  -.28429E+02
   .36700E+01   .66991E+02  -.28345E+02
   .36800E+01   .66997E+02  -.28225E+02
   .36900E+01   .66979E+02  -.28105E+02
   .37000E+01   .66931E+02  -.27986E+02
   .37100E+01   .66844E+02  -.27866E+02
   .37170E+01   .66753E+02  -.27785E+02
   .37210E+01   .66686E+02  -.27740E+02
   .37250E+01   .66606E+02  -.27694E+02
   .37290E+01   .66511E+02  -.27648E+02
   .37330E+01   .66396E+02  -.27602E+02
   .37370E+01   .66258E+02  -.27556E+02
   .37400E+01   .66134E+02  -.27522E+02
   .37440E+01   .65935E+02  -.27476E+02
   .37480E+01   .65681E+02  -.27431E+02
   .37520E+01   .65347E+02  -.27385E+02
   .37535E+01   .65192E+02  -.27368E+02
   .37550E+01   .65015E+02  -.27350E+02
   .37570E+01   .64734E+02  -.27327E+02
   .37590E+01   .64382E+02  -.27305E+02
   .37610E+01   .63923E+02  -.27282E+02
   .37620E+01   .63632E+02  -.27270E+02
   .37630E+01   .63283E+02  -.27259E+02
   .37640E+01   .62850E+02  -.27247E+02
   .37650E+01   .62296E+02  -.27236E+02
   .37660E+01   .61546E+02  -.27224E+02
   .37670E+01   .60448E+02  -.27213E+02
   .37678E+01   .59081E+02  -.27204E+02
   .37686E+01   .56713E+02  -.27194E+02
   .37690E+01   .54664E+02  -.27190E+02
   .37694E+01   .51183E+02  -.27185E+02
   .37698E+01   .43515E+02  -.27181E+02
   .37701E+01   .15483E+02  -.27177E+02
   .37702E+01   .21486E+02  -.59820E+02
   .37702E+01   .28691E+02  -.92463E+02
   .37703E+01   .37698E+02  -.27175E+02
   .37704E+01   .68048E+01  -.27174E+02
   .37705E+01  -.70255E+02  -.27173E+02
   .37705E+01   .66693E+02  -.48304E+03
   .37706E+01   .20423E+03  -.27172E+02
   .37709E+01   .93483E+02  -.27169E+02
   .37711E+01   .81597E+02  -.27166E+02
   .37714E+01   .73617E+02  -.27163E+02
   .37716E+01   .67900E+02  -.27160E+02
   .37717E+01   .69686E+02  -.37051E+02
   .37718E+01   .71448E+02  -.27159E+02
   .37720E+01   .65588E+02  -.27157E+02
   .37722E+01   .51942E+02  -.27154E+02
   .37722E+01   .68012E+02  -.78628E+02
   .37723E+01   .82207E+02  -.27153E+02
   .37724E+01   .73649E+02  -.27152E+02
   .37724E+01   .69658E+02  -.27151E+02
   .37725E+01   .68319E+02  -.31054E+02
   .37726E+01   .66727E+02  -.27149E+02
   .37726E+01   .64280E+02  -.27149E+02
   .37727E+01   .60961E+02  -.27149E+02
   .37728E+01   .67367E+02  -.51268E+02
   .37728E+01   .72739E+02  -.27147E+02
   .37729E+01   .69021E+02  -.27146E+02
   .37729E+01   .65690E+02  -.27146E+02
   .37730E+01   .66837E+02  -.40849E+02
   .37731E+01   .67395E+02  -.27144E+02
   .37731E+01   .66159E+02  -.27144E+02
   .37732E+01   .67207E+02  -.41820E+02
   .37732E+01   .67567E+02  -.27142E+02
   .37733E+01   .68906E+02  -.43883E+02
   .37733E+01   .70040E+02  -.27141E+02
   .37734E+01   .71299E+02  -.27141E+02
   .37734E+01   .72601E+02  -.27141E+02
   .37734E+01   .70541E+02  -.31980E+02
   .37735E+01   .68446E+02  -.27917E+02
   .37736E+01   .65946E+02  -.30594E+02
   .37736E+01   .66062E+02  -.32100E+02
   .37736E+01   .66450E+02  -.32831E+02
   .37737E+01   .66873E+02  -.32750E+02
   .37737E+01   .67396E+02  -.32643E+02
   .37738E+01   .67519E+02  -.32569E+02
   .37738E+01   .67581E+02  -.32494E+02
   .37738E+01   .67622E+02  -.32431E+02
   .37739E+01   .67635E+02  -.32368E+02
   .37740E+01   .67635E+02  -.32323E+02
   .37740E+01   .67626E+02  -.32277E+02
   .37740E+01   .67612E+02  -.32242E+02
   .37741E+01   .67593E+02  -.32207E+02
   .37741E+01   .67574E+02  -.32179E+02
   .37742E+01   .67555E+02  -.32151E+02
   .37743E+01   .67513E+02  -.32107E+02
   .37744E+01   .67472E+02  -.32063E+02
   .37745E+01   .67436E+02  -.32025E+02
   .37746E+01   .67397E+02  -.31988E+02
   .37747E+01   .67360E+02  -.31961E+02
   .37748E+01   .67327E+02  -.31934E+02
   .37750E+01   .67265E+02  -.31881E+02
   .37752E+01   .67208E+02  -.31842E+02
   .37755E+01   .67136E+02  -.31784E+02
   .37757E+01   .67093E+02  -.31755E+02
   .37760E+01   .67038E+02  -.31712E+02
   .37763E+01   .66991E+02  -.31679E+02
   .37765E+01   .66962E+02  -.31657E+02
   .37770E+01   .66905E+02  -.31615E+02
   .37774E+01   .66871E+02  -.31590E+02
   .37778E+01   .66843E+02  -.31565E+02
   .37781E+01   .66827E+02  -.31553E+02
   .37785E+01   .66810E+02  -.31536E+02
   .37793E+01   .66794E+02  -.31517E+02
   .37800E+01   .66792E+02  -.31501E+02
   .37810E+01   .66805E+02  -.31492E+02
   .37820E+01   .66834E+02  -.31483E+02
   .37830E+01   .66873E+02  -.31478E+02
   .37840E+01   .66921E+02  -.31473E+02
   .37855E+01   .67002E+02  -.31463E+02
   .37870E+01   .67091E+02  -.31453E+02
   .37890E+01   .67211E+02  -.31424E+02
   .37910E+01   .67324E+02  -.31394E+02
   .37925E+01   .67407E+02  -.31372E+02
   .37940E+01   .67489E+02  -.31350E+02
   .37970E+01   .67644E+02  -.31298E+02
   .38000E+01   .67779E+02  -.31245E+02
   .38040E+01   .67948E+02  -.31197E+02
   .38080E+01   .68113E+02  -.31149E+02
   .38120E+01   .68270E+02  -.31101E+02
   .38150E+01   .68379E+02  -.31064E+02
   .38190E+01   .68521E+02  -.31025E+02
   .38230E+01   .68661E+02  -.30985E+02
   .38300E+01   .68899E+02  -.30916E+02
   .38380E+01   .69156E+02  -.30823E+02
   .38450E+01   .69363E+02  -.30742E+02
   .38530E+01   .69585E+02  -.30650E+02
   .38600E+01   .69768E+02  -.30569E+02
   .38680E+01   .69966E+02  -.30480E+02
   .38750E+01   .70134E+02  -.30403E+02
   .38900E+01   .70474E+02  -.30238E+02
   .39000E+01   .70688E+02  -.30127E+02
   .39100E+01   .70891E+02  -.30016E+02
   .39250E+01   .71179E+02  -.29850E+02
   .39400E+01   .71450E+02  -.29684E+02
   .39550E+01   .71706E+02  -.29523E+02
   .39700E+01   .71950E+02  -.29362E+02
   .39850E+01   .72182E+02  -.29202E+02
   .40000E+01   .72405E+02  -.29041E+02
   .40100E+01   .72549E+02  -.28934E+02
   .40200E+01   .72687E+02  -.28828E+02
   .40400E+01   .72951E+02  -.28614E+02
   .40600E+01   .73198E+02  -.28406E+02
   .40860E+01   .73499E+02  -.28136E+02
   .40980E+01   .73631E+02  -.28014E+02
   .41100E+01   .73758E+02  -.27892E+02
   .41180E+01   .73841E+02  -.27811E+02
   .41267E+01   .73929E+02  -.27723E+02
   .41500E+01   .74153E+02  -.27496E+02
   .41700E+01   .74334E+02  -.27301E+02
   .41900E+01   .74505E+02  -.27105E+02
   .42100E+01   .74667E+02  -.26910E+02
   .42300E+01   .74817E+02  -.26723E+02
   .42600E+01   .75022E+02  -.26442E+02
   .42800E+01   .75145E+02  -.26255E+02
   .43000E+01   .75256E+02  -.26068E+02
   .43300E+01   .75398E+02  -.25801E+02
   .43500E+01   .75474E+02  -.25624E+02
   .43700E+01   .75531E+02  -.25446E+02
   .43800E+01   .75550E+02  -.25357E+02
   .43900E+01   .75563E+02  -.25268E+02
   .44000E+01   .75566E+02  -.25184E+02
   .44100E+01   .75559E+02  -.25099E+02
   .44200E+01   .75537E+02  -.25015E+02
   .44300E+01   .75496E+02  -.24931E+02
   .44350E+01   .75466E+02  -.24889E+02
   .44400E+01   .75426E+02  -.24846E+02
   .44450E+01   .75374E+02  -.24804E+02
   .44500E+01   .75306E+02  -.24762E+02
   .44540E+01   .75235E+02  -.24728E+02
   .44570E+01   .75169E+02  -.24703E+02
   .44610E+01   .75055E+02  -.24669E+02
   .44630E+01   .74982E+02  -.24652E+02
   .44650E+01   .74895E+02  -.24635E+02
   .44670E+01   .74787E+02  -.24618E+02
   .44690E+01   .74649E+02  -.24601E+02
   .44705E+01   .74517E+02  -.24589E+02
   .44720E+01   .74348E+02  -.24576E+02
   .44730E+01   .74204E+02  -.24568E+02
   .44740E+01   .74022E+02  -.24559E+02
   .44750E+01   .73784E+02  -.24551E+02
   .44760E+01   .73450E+02  -.24542E+02
   .44770E+01   .72938E+02  -.24534E+02
   .44775E+01   .72555E+02  -.24530E+02
   .44780E+01   .72010E+02  -.24526E+02
   .44785E+01   .71159E+02  -.24521E+02
   .44790E+01   .69593E+02  -.24517E+02
   .44795E+01   .65534E+02  -.24513E+02
   .44800E+01   .18624E+02  -.24509E+02
   .44800E+01   .43173E+02  -.10220E+03
   .44801E+01   .73860E+02  -.19932E+03
   .44802E+01   .12909E+03  -.24507E+02
   .44805E+01   .85940E+02  -.24505E+02
   .44807E+01   .81771E+02  -.24503E+02
   .44808E+01   .80211E+02  -.24502E+02
   .44810E+01   .78770E+02  -.24500E+02
   .44812E+01   .77497E+02  -.24499E+02
   .44813E+01   .76692E+02  -.24498E+02
   .44815E+01   .75534E+02  -.24497E+02
   .44815E+01   .75670E+02  -.25528E+02
   .44816E+01   .75835E+02  -.26818E+02
   .44817E+01   .76097E+02  -.24495E+02
   .44818E+01   .75268E+02  -.24494E+02
   .44818E+01   .74411E+02  -.24494E+02
   .44819E+01   .73318E+02  -.24493E+02
   .44820E+01   .70965E+02  -.24492E+02
   .44820E+01   .72703E+02  -.30570E+02
   .44821E+01   .74861E+02  -.38166E+02
   .44822E+01   .78671E+02  -.24491E+02
   .44823E+01   .75745E+02  -.24490E+02
   .44824E+01   .73943E+02  -.24900E+02
   .44824E+01   .73589E+02  -.25292E+02
   .44825E+01   .73470E+02  -.27346E+02
   .44825E+01   .73395E+02  -.26123E+02
   .44825E+01   .73069E+02  -.26207E+02
   .44826E+01   .72358E+02  -.26200E+02
   .44826E+01   .71757E+02  -.26194E+02
   .44826E+01   .73236E+02  -.32278E+02
   .44827E+01   .74530E+02  -.37146E+02
   .44827E+01   .75996E+02  -.31037E+02
   .44828E+01   .76940E+02  -.26150E+02
   .44828E+01   .76642E+02  -.26148E+02
   .44828E+01   .76077E+02  -.26146E+02
   .44829E+01   .76624E+02  -.33576E+02
   .44830E+01   .77532E+02  -.26121E+02
   .44831E+01   .77743E+02  -.31841E+02
   .44832E+01   .78487E+02  -.26098E+02
   .44833E+01   .78087E+02  -.28529E+02
   .44833E+01   .78322E+02  -.26080E+02
   .44835E+01   .77362E+02  -.26072E+02
   .44837E+01   .76914E+02  -.26061E+02
   .44839E+01   .76717E+02  -.26053E+02
   .44840E+01   .76572E+02  -.26045E+02
   .44843E+01   .76373E+02  -.26028E+02
   .44847E+01   .76204E+02  -.26007E+02
   .44850E+01   .76114E+02  -.25999E+02
   .44853E+01   .76043E+02  -.25990E+02
   .44860E+01   .75928E+02  -.25971E+02
   .44865E+01   .75872E+02  -.25965E+02
   .44870E+01   .75831E+02  -.25958E+02
   .44880E+01   .75775E+02  -.25948E+02
   .44890E+01   .75745E+02  -.25943E+02
   .44900E+01   .75730E+02  -.25937E+02
   .44910E+01   .75726E+02  -.25933E+02
   .44920E+01   .75729E+02  -.25928E+02
   .44940E+01   .75749E+02  -.25916E+02
   .44960E+01   .75779E+02  -.25905E+02
   .44980E+01   .75815E+02  -.25885E+02
   .45000E+01   .75848E+02  -.25866E+02
   .45030E+01   .75899E+02  -.25837E+02
   .45050E+01   .75932E+02  -.25817E+02
   .45080E+01   .75978E+02  -.25787E+02
   .45100E+01   .76011E+02  -.25767E+02
   .45130E+01   .76047E+02  -.25743E+02
   .45150E+01   .76075E+02  -.25728E+02
   .45200E+01   .76143E+02  -.25688E+02
   .45250E+01   .76209E+02  -.25650E+02
   .45300E+01   .76271E+02  -.25612E+02
   .45400E+01   .76393E+02  -.25536E+02
   .45500E+01   .76505E+02  -.25456E+02
   .45600E+01   .76608E+02  -.25376E+02
   .45700E+01   .76703E+02  -.25298E+02
   .45800E+01   .76793E+02  -.25221E+02
   .45900E+01   .76878E+02  -.25143E+02
   .46000E+01   .76958E+02  -.25065E+02
   .46200E+01   .77107E+02  -.24911E+02
   .46403E+01   .77241E+02  -.24755E+02
   .46600E+01   .77357E+02  -.24607E+02
   .46800E+01   .77459E+02  -.24458E+02
   .46900E+01   .77504E+02  -.24383E+02
   .47000E+01   .77545E+02  -.24308E+02
   .47100E+01   .77580E+02  -.24233E+02
   .47200E+01   .77610E+02  -.24159E+02
   .47300E+01   .77632E+02  -.24086E+02
   .47400E+01   .77645E+02  -.24014E+02
   .47500E+01   .77646E+02  -.23942E+02
   .47550E+01   .77641E+02  -.23906E+02
   .47600E+01   .77630E+02  -.23870E+02
   .47650E+01   .77612E+02  -.23834E+02
   .47700E+01   .77585E+02  -.23798E+02
   .47750E+01   .77545E+02  -.23761E+02
   .47800E+01   .77485E+02  -.23725E+02
   .47820E+01   .77453E+02  -.23711E+02
   .47840E+01   .77413E+02  -.23697E+02
   .47870E+01   .77336E+02  -.23675E+02
   .47890E+01   .77265E+02  -.23660E+02
   .47910E+01   .77168E+02  -.23646E+02
   .47920E+01   .77103E+02  -.23639E+02
   .47930E+01   .77021E+02  -.23632E+02
   .47940E+01   .76912E+02  -.23624E+02
   .47950E+01   .76752E+02  -.23617E+02
   .47955E+01   .76638E+02  -.23614E+02
   .47961E+01   .76438E+02  -.23609E+02
   .47966E+01   .76158E+02  -.23606E+02
   .47972E+01   .75159E+02  -.23601E+02
   .47972E+01   .75211E+02  -.24176E+02
   .47973E+01   .75266E+02  -.24750E+02
   .47974E+01   .75268E+02  -.23600E+02
   .47975E+01   .74062E+02  -.23599E+02
   .47977E+01   .70447E+02  -.23598E+02
   .47978E+01   .75963E+02  -.41260E+02
   .47979E+01   .80748E+02  -.23597E+02
   .47979E+01   .78273E+02  -.23596E+02
   .47980E+01   .76150E+02  -.23596E+02
   .47981E+01   .78241E+02  -.33152E+02
   .47982E+01   .80719E+02  -.23594E+02
   .47985E+01   .77750E+02  -.23592E+02
   .47986E+01   .77418E+02  -.23591E+02
   .47987E+01   .77111E+02  -.23591E+02
   .47989E+01   .76727E+02  -.23590E+02
   .47990E+01   .76216E+02  -.23589E+02
   .47991E+01   .75585E+02  -.23588E+02
   .47992E+01   .74128E+02  -.23587E+02
   .47993E+01   .75232E+02  -.27743E+02
   .47993E+01   .76490E+02  -.31898E+02
   .47994E+01   .77733E+02  -.27742E+02
   .47994E+01   .78795E+02  -.23586E+02
   .47995E+01   .77274E+02  -.23585E+02
   .47996E+01   .76471E+02  -.23921E+02
   .47997E+01   .75990E+02  -.24328E+02
   .47997E+01   .75458E+02  -.24634E+02
   .47998E+01   .76098E+02  -.24633E+02
   .47998E+01   .76703E+02  -.28320E+02
   .47999E+01   .77639E+02  -.24632E+02
   .48000E+01   .77318E+02  -.24632E+02
   .48000E+01   .76969E+02  -.24632E+02
   .48001E+01   .77154E+02  -.26562E+02
   .48001E+01   .77232E+02  -.24631E+02
   .48002E+01   .77312E+02  -.24631E+02
   .48002E+01   .77421E+02  -.24631E+02
   .48003E+01   .77514E+02  -.26502E+02
   .48003E+01   .77587E+02  -.24630E+02
   .48003E+01   .77760E+02  -.24629E+02
   .48004E+01   .77912E+02  -.24629E+02
   .48004E+01   .77942E+02  -.26155E+02
   .48005E+01   .78203E+02  -.24628E+02
   .48007E+01   .77741E+02  -.24627E+02
   .48009E+01   .77602E+02  -.24625E+02
   .48011E+01   .77536E+02  -.24624E+02
   .48013E+01   .77499E+02  -.24622E+02
   .48017E+01   .77464E+02  -.24619E+02
   .48020E+01   .77454E+02  -.24617E+02
   .48025E+01   .77452E+02  -.24614E+02
   .48030E+01   .77459E+02  -.24610E+02
   .48035E+01   .77471E+02  -.24606E+02
   .48040E+01   .77485E+02  -.24603E+02
   .48050E+01   .77516E+02  -.24596E+02
   .48060E+01   .77547E+02  -.24588E+02
   .48070E+01   .77581E+02  -.24581E+02
   .48080E+01   .77609E+02  -.24574E+02
   .48090E+01   .77638E+02  -.24567E+02
   .48100E+01   .77666E+02  -.24559E+02
   .48120E+01   .77719E+02  -.24545E+02
   .48135E+01   .77755E+02  -.24534E+02
   .48150E+01   .77790E+02  -.24523E+02
   .48190E+01   .77874E+02  -.24494E+02
   .48220E+01   .77932E+02  -.24472E+02
   .48260E+01   .78002E+02  -.24443E+02
   .48300E+01   .78066E+02  -.24414E+02
   .48350E+01   .78140E+02  -.24378E+02
   .48400E+01   .78208E+02  -.24342E+02
   .48450E+01   .78272E+02  -.24306E+02
   .48500E+01   .78333E+02  -.24270E+02
   .48580E+01   .78423E+02  -.24212E+02
   .48650E+01   .78497E+02  -.24161E+02
   .48730E+01   .78577E+02  -.24103E+02
   .48800E+01   .78643E+02  -.24052E+02
   .48900E+01   .78733E+02  -.23980E+02
   .49000E+01   .78819E+02  -.23907E+02
   .49100E+01   .78900E+02  -.23837E+02
   .49200E+01   .78979E+02  -.23768E+02
   .49350E+01   .79090E+02  -.23663E+02
   .49500E+01   .79197E+02  -.23559E+02
   .49700E+01   .79331E+02  -.23422E+02
   .49850E+01   .79426E+02  -.23320E+02
   .50000E+01   .79517E+02  -.23218E+02
   .50200E+01   .79634E+02  -.23089E+02
   .50500E+01   .79802E+02  -.22894E+02
   .50700E+01   .79908E+02  -.22765E+02
   .51000E+01   .80061E+02  -.22570E+02
   .51300E+01   .80206E+02  -.22385E+02
   .51500E+01   .80299E+02  -.22262E+02
   .51800E+01   .80434E+02  -.22077E+02
   .52000E+01   .80520E+02  -.21953E+02
   .52300E+01   .80645E+02  -.21777E+02
   .52600E+01   .80764E+02  -.21600E+02
   .52800E+01   .80842E+02  -.21483E+02
   .53100E+01   .80954E+02  -.21306E+02
   .53600E+01   .81132E+02  -.21027E+02
   .53900E+01   .81233E+02  -.20859E+02
   .54147E+01   .81314E+02  -.20720E+02
   .54500E+01   .81426E+02  -.20531E+02
   .54900E+01   .81549E+02  -.20316E+02
   .55200E+01   .81638E+02  -.20157E+02
   .55600E+01   .81751E+02  -.19947E+02
   .55900E+01   .81832E+02  -.19793E+02
   .56300E+01   .81935E+02  -.19588E+02
   .56600E+01   .82009E+02  -.19439E+02
   .57000E+01   .82105E+02  -.19241E+02
   .57400E+01   .82196E+02  -.19048E+02
   .57800E+01   .82284E+02  -.18856E+02
   .58100E+01   .82347E+02  -.18716E+02
   .58500E+01   .82428E+02  -.18530E+02
   .58800E+01   .82487E+02  -.18394E+02
   .59200E+01   .82563E+02  -.18213E+02
   .59600E+01   .82636E+02  -.18038E+02
   .60000E+01   .82707E+02  -.17862E+02
   .60500E+01   .82791E+02  -.17648E+02
   .61000E+01   .82871E+02  -.17434E+02
   .61500E+01   .82946E+02  -.17229E+02
   .62000E+01   .83017E+02  -.17023E+02
   .62500E+01   .83085E+02  -.16826E+02
   .63000E+01   .83150E+02  -.16628E+02
   .63500E+01   .83212E+02  -.16437E+02
   .64038E+01   .83275E+02  -.16231E+02
   .64800E+01   .83358E+02  -.15952E+02
   .65100E+01   .83390E+02  -.15842E+02
   .65500E+01   .83430E+02  -.15696E+02
   .65900E+01   .83467E+02  -.15556E+02
   .66300E+01   .83503E+02  -.15417E+02
   .67000E+01   .83562E+02  -.15172E+02
   .67800E+01   .83623E+02  -.14907E+02
   .68500E+01   .83673E+02  -.14676E+02
   .69200E+01   .83717E+02  -.14452E+02
   .69600E+01   .83741E+02  -.14328E+02
   .70000E+01   .83762E+02  -.14203E+02
   .70700E+01   .83798E+02  -.13996E+02
   .71500E+01   .83835E+02  -.13759E+02
   .72200E+01   .83864E+02  -.13562E+02
   .73000E+01   .83895E+02  -.13337E+02
   .73500E+01   .83912E+02  -.13203E+02
   .74000E+01   .83928E+02  -.13068E+02
   .75000E+01   .83956E+02  -.12807E+02
   .76500E+01   .83991E+02  -.12435E+02
   .78000E+01   .84020E+02  -.12080E+02
   .79000E+01   .84035E+02  -.11850E+02
   .80000E+01   .84048E+02  -.11627E+02
   .80200E+01   .84050E+02  -.11583E+02
   .80478E+01   .84053E+02  -.11522E+02
   .81700E+01   .84060E+02  -.11260E+02
   .83000E+01   .84063E+02  -.10992E+02
   .84000E+01   .84062E+02  -.10791E+02
   .85000E+01   .84058E+02  -.10597E+02
   .86500E+01   .84047E+02  -.10314E+02
   .88000E+01   .84030E+02  -.10045E+02
   .89000E+01   .84015E+02  -.98710E+01
   .90000E+01   .83999E+02  -.97024E+01
   .91500E+01   .83971E+02  -.94585E+01
   .93000E+01   .83940E+02  -.92245E+01
   .94000E+01   .83917E+02  -.90738E+01
   .95000E+01   .83893E+02  -.89271E+01
   .96500E+01   .83855E+02  -.87141E+01
   .98000E+01   .83814E+02  -.85094E+01
   .99000E+01   .83785E+02  -.83767E+01
   .10000E+02   .83756E+02  -.82474E+01
   .10060E+02   .83738E+02  -.81702E+01
   .10126E+02   .83717E+02  -.80864E+01
   .10260E+02   .83672E+02  -.79213E+01
   .10400E+02   .83622E+02  -.77543E+01
   .10550E+02   .83566E+02  -.75817E+01
   .10700E+02   .83507E+02  -.74153E+01
   .10850E+02   .83445E+02  -.72548E+01
   .11000E+02   .83380E+02  -.70999E+01
   .11110E+02   .83331E+02  -.69897E+01
   .11220E+02   .83280E+02  -.68823E+01
   .11500E+02   .83145E+02  -.66208E+01
   .11700E+02   .83042E+02  -.64429E+01
   .11900E+02   .82933E+02  -.62726E+01
   .12000E+02   .82877E+02  -.61911E+01
   .12100E+02   .82818E+02  -.61096E+01
   .12250E+02   .82727E+02  -.59936E+01
   .12400E+02   .82632E+02  -.58777E+01
   .12500E+02   .82567E+02  -.58043E+01
   .12600E+02   .82499E+02  -.57309E+01
   .12700E+02   .82429E+02  -.56605E+01
   .12800E+02   .82356E+02  -.55901E+01
   .12900E+02   .82282E+02  -.55225E+01
   .13000E+02   .82204E+02  -.54548E+01
   .13150E+02   .82083E+02  -.53573E+01
   .13300E+02   .81953E+02  -.52597E+01
   .13400E+02   .81861E+02  -.51978E+01
   .13500E+02   .81765E+02  -.51359E+01
   .13570E+02   .81696E+02  -.50946E+01
   .13650E+02   .81613E+02  -.50474E+01
   .13720E+02   .81537E+02  -.50061E+01
   .13800E+02   .81447E+02  -.49589E+01
   .13900E+02   .81329E+02  -.49026E+01
   .13950E+02   .81267E+02  -.48744E+01
   .14000E+02   .81203E+02  -.48463E+01
   .14070E+02   .81110E+02  -.48086E+01
   .14150E+02   .80998E+02  -.47656E+01
   .14220E+02   .80895E+02  -.47279E+01
   .14300E+02   .80769E+02  -.46849E+01
   .14350E+02   .80686E+02  -.46592E+01
   .14400E+02   .80600E+02  -.46334E+01
   .14450E+02   .80509E+02  -.46077E+01
   .14500E+02   .80413E+02  -.45820E+01
   .14570E+02   .80272E+02  -.45476E+01
   .14610E+02   .80185E+02  -.45279E+01
   .14650E+02   .80095E+02  -.45083E+01
   .14680E+02   .80024E+02  -.44935E+01
   .14720E+02   .79926E+02  -.44739E+01
   .14760E+02   .79822E+02  -.44542E+01
   .14800E+02   .79711E+02  -.44345E+01
   .14820E+02   .79654E+02  -.44251E+01
   .14850E+02   .79564E+02  -.44110E+01
   .14900E+02   .79403E+02  -.43875E+01
   .14920E+02   .79335E+02  -.43781E+01
   .14950E+02   .79227E+02  -.43640E+01
   .14970E+02   .79152E+02  -.43546E+01
   .15000E+02   .79032E+02  -.43405E+01
   .15010E+02   .78991E+02  -.43358E+01
   .15020E+02   .78948E+02  -.43312E+01
   .15050E+02   .78808E+02  -.43173E+01
   .15070E+02   .78719E+02  -.43081E+01
   .15100E+02   .78567E+02  -.42942E+01
   .15120E+02   .78457E+02  -.42851E+01
   .15150E+02   .78280E+02  -.42714E+01
   .15170E+02   .78151E+02  -.42623E+01
   .15185E+02   .78048E+02  -.42555E+01
   .15200E+02   .77939E+02  -.42487E+01
   .15215E+02   .77823E+02  -.42420E+01
   .15230E+02   .77699E+02  -.42354E+01
   .15245E+02   .77566E+02  -.42288E+01
   .15260E+02   .77423E+02  -.42222E+01
   .15275E+02   .77267E+02  -.42155E+01
   .15283E+02   .77178E+02  -.42120E+01
   .15290E+02   .77097E+02  -.42089E+01
   .15300E+02   .76973E+02  -.42045E+01
   .15310E+02   .76841E+02  -.42001E+01
   .15320E+02   .76699E+02  -.41957E+01
   .15330E+02   .76545E+02  -.41913E+01
   .15338E+02   .76411E+02  -.41877E+01
   .15345E+02   .76285E+02  -.41846E+01
   .15352E+02   .76151E+02  -.41816E+01
   .15360E+02   .75984E+02  -.41780E+01
   .15368E+02   .75800E+02  -.41745E+01
   .15375E+02   .75623E+02  -.41714E+01
   .15383E+02   .75397E+02  -.41679E+01
   .15386E+02   .75305E+02  -.41666E+01
   .15390E+02   .75174E+02  -.41648E+01
   .15394E+02   .75033E+02  -.41630E+01
   .15398E+02   .74882E+02  -.41613E+01
   .15402E+02   .74716E+02  -.41595E+01
   .15405E+02   .74582E+02  -.41582E+01
   .15409E+02   .74386E+02  -.41564E+01
   .15413E+02   .74169E+02  -.41546E+01
   .15417E+02   .73923E+02  -.41529E+01
   .15420E+02   .73715E+02  -.41515E+01
   .15423E+02   .73483E+02  -.41502E+01
   .15425E+02   .73310E+02  -.41493E+01
   .15428E+02   .73020E+02  -.41480E+01
   .15430E+02   .72801E+02  -.41471E+01
   .15433E+02   .72418E+02  -.41458E+01
   .15435E+02   .72117E+02  -.41449E+01
   .15436E+02   .71858E+02  -.41443E+01
   .15438E+02   .71563E+02  -.41436E+01
   .15439E+02   .71342E+02  -.41432E+01
   .15440E+02   .71096E+02  -.41427E+01
   .15441E+02   .70668E+02  -.41421E+01
   .15443E+02   .70143E+02  -.41414E+01
   .15444E+02   .69808E+02  -.41410E+01
   .15444E+02   .69473E+02  -.41407E+01
   .15445E+02   .69029E+02  -.41404E+01
   .15446E+02   .68568E+02  -.41401E+01
   .15447E+02   .67930E+02  -.41397E+01
   .15448E+02   .67232E+02  -.41394E+01
   .15448E+02   .66339E+02  -.41391E+01
   .15449E+02   .64932E+02  -.41387E+01
   .15450E+02   .63091E+02  -.41384E+01
   .15450E+02   .61571E+02  -.41383E+01
   .15450E+02   .59432E+02  -.41381E+01
   .15451E+02   .57126E+02  -.41379E+01
   .15451E+02   .52177E+02  -.41378E+01
   .15452E+02   .41610E+02  -.41376E+01
   .15452E+02   .17697E+02  -.41374E+01
   .15452E+02   .36455E+02  -.65559E+02
   .15452E+02   .74013E+02  -.18840E+03
   .15453E+02   .12218E+03  -.41371E+01
   .15453E+02   .10111E+03  -.41371E+01
   .15453E+02   .87794E+02  -.41369E+01
   .15453E+02   .80327E+02  -.41368E+01
   .15454E+02   .74280E+02  -.41367E+01
   .15454E+02   .75097E+02  -.10638E+02
   .15454E+02   .76962E+02  -.23639E+02
   .15454E+02   .78299E+02  -.41364E+01
   .15454E+02   .75300E+02  -.41364E+01
   .15455E+02   .76005E+02  -.20052E+02
   .15455E+02   .76308E+02  -.41362E+01
   .15455E+02   .78048E+02  -.41361E+01
   .15455E+02   .79845E+02  -.41361E+01
   .15455E+02   .79057E+02  -.12329E+02
   .15455E+02   .77661E+02  -.41359E+01
   .15456E+02   .74642E+02  -.41358E+01
   .15456E+02   .72160E+02  -.57479E+01
   .15456E+02   .71071E+02  -.79787E+01
   .15456E+02   .71359E+02  -.11092E+02
   .15456E+02   .72277E+02  -.10969E+02
   .15457E+02   .73263E+02  -.10840E+02
   .15457E+02   .73527E+02  -.10713E+02
   .15457E+02   .73658E+02  -.10587E+02
   .15457E+02   .73738E+02  -.10466E+02
   .15458E+02   .73756E+02  -.10407E+02
   .15458E+02   .73771E+02  -.10356E+02
   .15458E+02   .73773E+02  -.10291E+02
   .15458E+02   .73771E+02  -.10257E+02
   .15458E+02   .73762E+02  -.10208E+02
   .15459E+02   .73749E+02  -.10171E+02
   .15459E+02   .73741E+02  -.10146E+02
   .15459E+02   .73732E+02  -.10128E+02
   .15460E+02   .73718E+02  -.10100E+02
   .15460E+02   .73710E+02  -.10087E+02
   .15460E+02   .73699E+02  -.10066E+02
   .15460E+02   .73684E+02  -.10042E+02
   .15461E+02   .73674E+02  -.10026E+02
   .15462E+02   .73669E+02  -.10014E+02
   .15462E+02   .73669E+02  -.10008E+02
   .15462E+02   .73673E+02  -.10006E+02
   .15463E+02   .73682E+02  -.10003E+02
   .15464E+02   .73701E+02  -.10007E+02
   .15465E+02   .73730E+02  -.10012E+02
   .15465E+02   .73766E+02  -.10019E+02
   .15466E+02   .73802E+02  -.10025E+02
   .15467E+02   .73858E+02  -.10033E+02
   .15468E+02   .73920E+02  -.10040E+02
   .15469E+02   .73983E+02  -.10043E+02
   .15470E+02   .74048E+02  -.10045E+02
   .15471E+02   .74113E+02  -.10043E+02
   .15472E+02   .74177E+02  -.10040E+02
   .15474E+02   .74270E+02  -.10029E+02
   .15475E+02   .74357E+02  -.10018E+02
   .15476E+02   .74397E+02  -.10011E+02
   .15476E+02   .74440E+02  -.10003E+02
   .15477E+02   .74461E+02  -.99988E+01
   .15477E+02   .74481E+02  -.99949E+01
   .15477E+02   .74491E+02  -.99929E+01
   .15478E+02   .74501E+02  -.99909E+01
   .15478E+02   .74511E+02  -.99899E+01
   .15478E+02   .74245E+02  -.99879E+01
   .15478E+02   .74531E+02  -.99850E+01
   .15479E+02   .74540E+02  -.99831E+01
   .15479E+02   .74550E+02  -.99811E+01
   .15479E+02   .74564E+02  -.99782E+01
   .15479E+02   .74587E+02  -.99734E+01
   .15480E+02   .74610E+02  -.99685E+01
   .15481E+02   .74674E+02  -.99565E+01
   .15483E+02   .74735E+02  -.99444E+01
   .15485E+02   .74809E+02  -.99332E+01
   .15488E+02   .74914E+02  -.99237E+01
   .15490E+02   .74979E+02  -.99221E+01
   .15493E+02   .75077E+02  -.99264E+01
   .15495E+02   .75141E+02  -.99293E+01
   .15500E+02   .75299E+02  -.99438E+01
   .15505E+02   .75455E+02  -.99564E+01
   .15510E+02   .75606E+02  -.99623E+01
   .15515E+02   .75749E+02  -.99613E+01
   .15520E+02   .75881E+02  -.99556E+01
   .15525E+02   .76001E+02  -.99485E+01
   .15530E+02   .76111E+02  -.99414E+01
   .15535E+02   .76214E+02  -.99395E+01
   .15540E+02   .76313E+02  -.99376E+01
   .15545E+02   .76409E+02  -.99357E+01
   .15550E+02   .76500E+02  -.99338E+01
   .15560E+02   .76672E+02  -.99293E+01
   .15570E+02   .76834E+02  -.99248E+01
   .15578E+02   .76954E+02  -.99157E+01
   .15585E+02   .77052E+02  -.99077E+01
   .15593E+02   .77158E+02  -.98999E+01
   .15600E+02   .77245E+02  -.98931E+01
   .15615E+02   .77420E+02  -.98798E+01
   .15630E+02   .77581E+02  -.98664E+01
   .15640E+02   .77682E+02  -.98575E+01
   .15650E+02   .77777E+02  -.98486E+01
   .15660E+02   .77869E+02  -.98398E+01
   .15670E+02   .77956E+02  -.98309E+01
   .15685E+02   .78080E+02  -.98175E+01
   .15700E+02   .78197E+02  -.98042E+01
   .15710E+02   .78272E+02  -.97939E+01
   .15720E+02   .78344E+02  -.97836E+01
   .15735E+02   .78446E+02  -.97682E+01
   .15750E+02   .78542E+02  -.97527E+01
   .15765E+02   .78634E+02  -.97373E+01
   .15780E+02   .78721E+02  -.97219E+01
   .15800E+02   .78831E+02  -.97013E+01
   .15820E+02   .78934E+02  -.96817E+01
   .15850E+02   .79079E+02  -.96523E+01
   .15870E+02   .79170E+02  -.96327E+01
   .15900E+02   .79298E+02  -.96033E+01
   .15920E+02   .79378E+02  -.95837E+01
   .15950E+02   .79491E+02  -.95544E+01
   .15970E+02   .79563E+02  -.95348E+01
   .16000E+02   .79666E+02  -.95054E+01
   .16020E+02   .79731E+02  -.94860E+01
   .16050E+02   .79824E+02  -.94569E+01
   .16070E+02   .79882E+02  -.94376E+01
   .16100E+02   .79967E+02  -.94085E+01
   .16150E+02   .80098E+02  -.93601E+01
   .16200E+02   .80218E+02  -.93116E+01
   .16250E+02   .80329E+02  -.92630E+01
   .16300E+02   .80431E+02  -.92144E+01
   .16350E+02   .80524E+02  -.91658E+01
   .16400E+02   .80611E+02  -.91171E+01
   .16450E+02   .80690E+02  -.90701E+01
   .16500E+02   .80764E+02  -.90231E+01
   .16550E+02   .80832E+02  -.89760E+01
   .16600E+02   .80894E+02  -.89290E+01
   .16650E+02   .80951E+02  -.88848E+01
   .16700E+02   .81004E+02  -.88407E+01
   .16750E+02   .81054E+02  -.87965E+01
   .16800E+02   .81099E+02  -.87524E+01
   .16850E+02   .81141E+02  -.87096E+01
   .16900E+02   .81179E+02  -.86668E+01
   .16950E+02   .81214E+02  -.86240E+01
   .17007E+02   .81250E+02  -.85751E+01
   .17030E+02   .81263E+02  -.85557E+01
   .17050E+02   .81274E+02  -.85387E+01
   .17100E+02   .81298E+02  -.84963E+01
   .17150E+02   .81319E+02  -.84545E+01
   .17200E+02   .81337E+02  -.84127E+01
   .17270E+02   .81356E+02  -.83559E+01
   .17340E+02   .81369E+02  -.82991E+01
   .17410E+02   .81375E+02  -.82422E+01
   .17479E+02   .81374E+02  -.81862E+01
   .17530E+02   .81369E+02  -.81464E+01
   .17590E+02   .81357E+02  -.80995E+01
   .17650E+02   .81340E+02  -.80527E+01
   .17700E+02   .81321E+02  -.80136E+01
   .17780E+02   .81281E+02  -.79526E+01
   .17810E+02   .81263E+02  -.79297E+01
   .17850E+02   .81235E+02  -.78992E+01
   .17890E+02   .81203E+02  -.78687E+01
   .17930E+02   .81166E+02  -.78382E+01
   .17970E+02   .81124E+02  -.78077E+01
   .18000E+02   .81089E+02  -.77848E+01
   .18030E+02   .81051E+02  -.77628E+01
   .18070E+02   .80994E+02  -.77334E+01
   .18110E+02   .80930E+02  -.77040E+01
   .18150E+02   .80857E+02  -.76746E+01
   .18190E+02   .80773E+02  -.76452E+01
   .18210E+02   .80726E+02  -.76305E+01
   .18230E+02   .80676E+02  -.76159E+01
   .18250E+02   .80622E+02  -.76012E+01
   .18270E+02   .80563E+02  -.75865E+01
   .18285E+02   .80516E+02  -.75755E+01
   .18300E+02   .80465E+02  -.75644E+01
   .18320E+02   .80392E+02  -.75504E+01
   .18340E+02   .80311E+02  -.75363E+01
   .18355E+02   .80245E+02  -.75257E+01
   .18370E+02   .80173E+02  -.75151E+01
   .18385E+02   .80094E+02  -.75046E+01
   .18400E+02   .80007E+02  -.74940E+01
   .18415E+02   .79910E+02  -.74834E+01
   .18430E+02   .79801E+02  -.74728E+01
   .18438E+02   .79737E+02  -.74672E+01
   .18445E+02   .79677E+02  -.74623E+01
   .18453E+02   .79603E+02  -.74566E+01
   .18460E+02   .79533E+02  -.74517E+01
   .18467E+02   .79457E+02  -.74468E+01
   .18475E+02   .79362E+02  -.74412E+01
   .18483E+02   .79256E+02  -.74355E+01
   .18490E+02   .79152E+02  -.74306E+01
   .18498E+02   .79018E+02  -.74250E+01
   .18502E+02   .78943E+02  -.74221E+01
   .18505E+02   .78882E+02  -.74200E+01
   .18509E+02   .78795E+02  -.74172E+01
   .18513E+02   .78699E+02  -.74144E+01
   .18517E+02   .78593E+02  -.74116E+01
   .18520E+02   .78505E+02  -.74095E+01
   .18523E+02   .78408E+02  -.74073E+01
   .18525E+02   .78338E+02  -.74059E+01
   .18528E+02   .78223E+02  -.74038E+01
   .18530E+02   .78138E+02  -.74024E+01
   .18533E+02   .77996E+02  -.74003E+01
   .18535E+02   .77888E+02  -.73989E+01
   .18538E+02   .77704E+02  -.73968E+01
   .18540E+02   .77561E+02  -.73954E+01
   .18542E+02   .77396E+02  -.73939E+01
   .18544E+02   .77254E+02  -.73929E+01
   .18545E+02   .77091E+02  -.73918E+01
   .18546E+02   .76903E+02  -.73908E+01
   .18548E+02   .76679E+02  -.73897E+01
   .18549E+02   .76505E+02  -.73890E+01
   .18550E+02   .76302E+02  -.73883E+01
   .18551E+02   .76115E+02  -.73878E+01
   .18552E+02   .75928E+02  -.73872E+01
   .18552E+02   .75679E+02  -.73867E+01
   .18553E+02   .75421E+02  -.73862E+01
   .18554E+02   .74961E+02  -.73855E+01
   .18555E+02   .74673E+02  -.73851E+01
   .18555E+02   .74332E+02  -.73848E+01
   .18556E+02   .73917E+02  -.73844E+01
   .18556E+02   .73398E+02  -.73841E+01
   .18556E+02   .72725E+02  -.73837E+01
   .18557E+02   .71805E+02  -.73834E+01
   .18558E+02   .70452E+02  -.73830E+01
   .18558E+02   .68215E+02  -.73827E+01
   .18558E+02   .66831E+02  -.73825E+01
   .18559E+02   .63657E+02  -.73823E+01
   .18559E+02   .57424E+02  -.73821E+01
   .18559E+02   .48181E+02  -.73820E+01
   .18559E+02   .51797E+02  -.30471E+02
   .18559E+02   .59619E+02  -.53561E+02
   .18559E+02   .75272E+02  -.99740E+02
   .18560E+02   .10229E+03  -.73815E+01
   .18560E+02   .90206E+02  -.73812E+01
   .18560E+02   .85029E+02  -.73810E+01
   .18561E+02   .81847E+02  -.76659E+01
   .18561E+02   .78175E+02  -.73805E+01
   .18561E+02   .76933E+02  -.73805E+01
   .18562E+02   .78038E+02  -.19108E+02
   .18562E+02   .79031E+02  -.88273E+01
   .18562E+02   .79628E+02  -.90824E+01
   .18562E+02   .79790E+02  -.15977E+02
   .18563E+02   .81268E+02  -.10524E+02
   .18563E+02   .80527E+02  -.10485E+02
   .18563E+02   .80030E+02  -.10459E+02
   .18563E+02   .79723E+02  -.10433E+02
   .18564E+02   .79508E+02  -.10413E+02
   .18564E+02   .79346E+02  -.10397E+02
   .18564E+02   .79217E+02  -.10382E+02
   .18565E+02   .79111E+02  -.10371E+02
   .18565E+02   .79025E+02  -.10360E+02
   .18565E+02   .78951E+02  -.10354E+02
   .18566E+02   .78909E+02  -.10349E+02
   .18566E+02   .78819E+02  -.10342E+02
   .18566E+02   .78750E+02  -.10339E+02
   .18567E+02   .78696E+02  -.10336E+02
   .18567E+02   .78654E+02  -.10337E+02
   .18568E+02   .78621E+02  -.10337E+02
   .18569E+02   .78596E+02  -.10340E+02
   .18569E+02   .78577E+02  -.10343E+02
   .18570E+02   .78555E+02  -.10350E+02
   .18571E+02   .78548E+02  -.10358E+02
   .18573E+02   .78556E+02  -.10365E+02
   .18574E+02   .78579E+02  -.10373E+02
   .18575E+02   .78599E+02  -.10373E+02
   .18576E+02   .78622E+02  -.10374E+02
   .18577E+02   .78646E+02  -.10372E+02
   .18578E+02   .78671E+02  -.10369E+02
   .18579E+02   .78695E+02  -.10365E+02
   .18580E+02   .78719E+02  -.10360E+02
   .18581E+02   .78754E+02  -.10352E+02
   .18583E+02   .78786E+02  -.10344E+02
   .18584E+02   .78807E+02  -.10338E+02
   .18585E+02   .78826E+02  -.10333E+02
   .18588E+02   .78882E+02  -.10320E+02
   .18590E+02   .78915E+02  -.10312E+02
   .18593E+02   .78963E+02  -.10307E+02
   .18595E+02   .78993E+02  -.10304E+02
   .18598E+02   .79038E+02  -.10306E+02
   .18600E+02   .79068E+02  -.10307E+02
   .18604E+02   .79129E+02  -.10312E+02
   .18608E+02   .79190E+02  -.10317E+02
   .18612E+02   .79250E+02  -.10319E+02
   .18615E+02   .79295E+02  -.10321E+02
   .18619E+02   .79351E+02  -.10318E+02
   .18623E+02   .79404E+02  -.10315E+02
   .18627E+02   .79453E+02  -.10311E+02
   .18630E+02   .79488E+02  -.10308E+02
   .18637E+02   .79563E+02  -.10304E+02
   .18645E+02   .79644E+02  -.10299E+02
   .18653E+02   .79719E+02  -.10295E+02
   .18660E+02   .79781E+02  -.10291E+02
   .18670E+02   .79863E+02  -.10283E+02
   .18680E+02   .79938E+02  -.10275E+02
   .18690E+02   .80008E+02  -.10267E+02
   .18700E+02   .80072E+02  -.10259E+02
   .18715E+02   .80161E+02  -.10247E+02
   .18722E+02   .80200E+02  -.10241E+02
   .18730E+02   .80242E+02  -.10234E+02
   .18733E+02   .80257E+02  -.10232E+02
   .18735E+02   .80267E+02  -.10230E+02
   .18736E+02   .80274E+02  -.10229E+02
   .18738E+02   .80282E+02  -.10228E+02
   .18739E+02   .80284E+02  -.10227E+02
   .18739E+02   .80286E+02  -.10227E+02
   .18739E+02   .80288E+02  -.10227E+02
   .18740E+02   .80289E+02  -.10227E+02
   .18740E+02   .80290E+02  -.10226E+02
   .18740E+02   .80325E+02  -.10226E+02
   .18740E+02   .80292E+02  -.10226E+02
   .18740E+02   .80293E+02  -.10226E+02
   .18741E+02   .80294E+02  -.10226E+02
   .18741E+02   .80295E+02  -.10226E+02
   .18741E+02   .80296E+02  -.10225E+02
   .18742E+02   .80298E+02  -.10225E+02
   .18742E+02   .80302E+02  -.10224E+02
   .18743E+02   .80305E+02  -.10224E+02
   .18744E+02   .80310E+02  -.10223E+02
   .18745E+02   .80315E+02  -.10222E+02
   .18748E+02   .80329E+02  -.10220E+02
   .18750E+02   .80338E+02  -.10218E+02
   .18755E+02   .80360E+02  -.10214E+02
   .18760E+02   .80382E+02  -.10210E+02
   .18770E+02   .80424E+02  -.10202E+02
   .18785E+02   .80483E+02  -.10189E+02
   .18800E+02   .80538E+02  -.10177E+02
   .18820E+02   .80604E+02  -.10160E+02
   .18835E+02   .80650E+02  -.10147E+02
   .18850E+02   .80692E+02  -.10134E+02
   .18865E+02   .80731E+02  -.10122E+02
   .18880E+02   .80767E+02  -.10109E+02
   .18906E+02   .80823E+02  -.10087E+02
   .18930E+02   .80868E+02  -.10066E+02
   .18950E+02   .80899E+02  -.10049E+02
   .18970E+02   .80926E+02  -.10031E+02
   .19000E+02   .80957E+02  -.10005E+02
   .19020E+02   .80971E+02  -.99878E+01
   .19050E+02   .80981E+02  -.99618E+01
   .19060E+02   .80981E+02  -.99531E+01
   .19070E+02   .80980E+02  -.99444E+01
   .19085E+02   .80974E+02  -.99314E+01
   .19100E+02   .80962E+02  -.99184E+01
   .19110E+02   .80952E+02  -.99102E+01
   .19120E+02   .80938E+02  -.99020E+01
   .19140E+02   .80901E+02  -.98856E+01
   .19155E+02   .80861E+02  -.98734E+01
   .19163E+02   .80835E+02  -.98668E+01
   .19170E+02   .80808E+02  -.98611E+01
   .19180E+02   .80763E+02  -.98530E+01
   .19185E+02   .80736E+02  -.98489E+01
   .19190E+02   .80706E+02  -.98448E+01
   .19195E+02   .80672E+02  -.98407E+01
   .19200E+02   .80634E+02  -.98366E+01
   .19205E+02   .80591E+02  -.98325E+01
   .19210E+02   .80540E+02  -.98284E+01
   .19215E+02   .80481E+02  -.98243E+01
   .19220E+02   .80410E+02  -.98202E+01
   .19223E+02   .80360E+02  -.98178E+01
   .19225E+02   .80323E+02  -.98162E+01
   .19227E+02   .80282E+02  -.98145E+01
   .19230E+02   .80211E+02  -.98121E+01
   .19232E+02   .80156E+02  -.98104E+01
   .19234E+02   .80093E+02  -.98088E+01
   .19237E+02   .79978E+02  -.98063E+01
   .19238E+02   .79932E+02  -.98055E+01
   .19239E+02   .79881E+02  -.98047E+01
   .19240E+02   .79792E+02  -.98035E+01
   .19242E+02   .79682E+02  -.98023E+01
   .19243E+02   .79593E+02  -.98014E+01
   .19244E+02   .79483E+02  -.98006E+01
   .19245E+02   .79344E+02  -.97998E+01
   .19246E+02   .79258E+02  -.97994E+01
   .19246E+02   .79155E+02  -.97990E+01
   .19247E+02   .78970E+02  -.97984E+01
   .19247E+02   .78830E+02  -.97981E+01
   .19247E+02   .78648E+02  -.97978E+01
   .19248E+02   .78469E+02  -.97975E+01
   .19248E+02   .78123E+02  -.97972E+01
   .19249E+02   .77501E+02  -.97969E+01
   .19249E+02   .76441E+02  -.97966E+01
   .19249E+02   .76487E+02  -.97965E+01
   .19249E+02   .76849E+02  -.97965E+01
   .19249E+02   .77379E+02  -.97963E+01
   .19250E+02   .78969E+02  -.97962E+01
   .19250E+02   .80642E+02  -.14168E+02
   .19250E+02   .80685E+02  -.97957E+01
   .19250E+02   .79423E+02  -.97954E+01
   .19251E+02   .78179E+02  -.97952E+01
   .19251E+02   .78480E+02  -.97950E+01
   .19251E+02   .78879E+02  -.14600E+02
   .19251E+02   .79281E+02  -.10164E+02
   .19251E+02   .79443E+02  -.10429E+02
   .19251E+02   .79667E+02  -.10471E+02
   .19252E+02   .79543E+02  -.12602E+02
   .19252E+02   .80071E+02  -.11365E+02
   .19252E+02   .79999E+02  -.11363E+02
   .19253E+02   .79942E+02  -.11362E+02
   .19253E+02   .79894E+02  -.11360E+02
   .19253E+02   .79907E+02  -.11359E+02
   .19253E+02   .79896E+02  -.11357E+02
   .19254E+02   .79899E+02  -.11353E+02
   .19254E+02   .79907E+02  -.11351E+02
   .19254E+02   .79922E+02  -.11347E+02
   .19255E+02   .79940E+02  -.11344E+02
   .19255E+02   .79954E+02  -.11342E+02
   .19255E+02   .79963E+02  -.11340E+02
   .19256E+02   .79978E+02  -.11337E+02
   .19256E+02   .80001E+02  -.11333E+02
   .19257E+02   .80024E+02  -.11329E+02
   .19257E+02   .80047E+02  -.11325E+02
   .19257E+02   .80069E+02  -.11321E+02
   .19258E+02   .80090E+02  -.11318E+02
   .19259E+02   .80131E+02  -.11311E+02
   .19260E+02   .80168E+02  -.11305E+02
   .19261E+02   .80201E+02  -.11298E+02
   .19263E+02   .80246E+02  -.11294E+02
   .19264E+02   .80289E+02  -.11290E+02
   .19265E+02   .80315E+02  -.11288E+02
   .19266E+02   .80339E+02  -.11285E+02
   .19268E+02   .80385E+02  -.11285E+02
   .19270E+02   .80428E+02  -.11285E+02
   .19273E+02   .80488E+02  -.11287E+02
   .19275E+02   .80526E+02  -.11288E+02
   .19278E+02   .80581E+02  -.11290E+02
   .19280E+02   .80617E+02  -.11292E+02
   .19285E+02   .80698E+02  -.11289E+02
   .19290E+02   .80770E+02  -.11286E+02
   .19295E+02   .80836E+02  -.11279E+02
   .19300E+02   .80894E+02  -.11273E+02
   .19305E+02   .80947E+02  -.11267E+02
   .19310E+02   .80994E+02  -.11261E+02
   .19315E+02   .81039E+02  -.11257E+02
   .19320E+02   .81082E+02  -.11254E+02
   .19330E+02   .81163E+02  -.11247E+02
   .19338E+02   .81223E+02  -.11240E+02
   .19345E+02   .81272E+02  -.11233E+02
   .19352E+02   .81318E+02  -.11227E+02
   .19360E+02   .81367E+02  -.11219E+02
   .19370E+02   .81426E+02  -.11211E+02
   .19380E+02   .81481E+02  -.11203E+02
   .19390E+02   .81533E+02  -.11194E+02
   .19400E+02   .81583E+02  -.11186E+02
   .19410E+02   .81631E+02  -.11177E+02
   .19420E+02   .81677E+02  -.11168E+02
   .19435E+02   .81742E+02  -.11155E+02
   .19450E+02   .81804E+02  -.11142E+02
   .19470E+02   .81881E+02  -.11125E+02
   .19500E+02   .81989E+02  -.11098E+02
   .19520E+02   .82057E+02  -.11081E+02
   .19550E+02   .82152E+02  -.11055E+02
   .19570E+02   .82212E+02  -.11038E+02
   .19600E+02   .82298E+02  -.11012E+02
   .19630E+02   .82379E+02  -.10986E+02
   .19650E+02   .82431E+02  -.10969E+02
   .19670E+02   .82481E+02  -.10953E+02
   .19700E+02   .82554E+02  -.10927E+02
   .19750E+02   .82669E+02  -.10885E+02
   .19800E+02   .82777E+02  -.10842E+02
   .19850E+02   .82878E+02  -.10801E+02
   .19900E+02   .82974E+02  -.10760E+02
   .19950E+02   .83065E+02  -.10719E+02
   .19970E+02   .83101E+02  -.10702E+02
   .20000E+02   .83152E+02  -.10677E+02
   .20070E+02   .83268E+02  -.10622E+02
   .20150E+02   .83393E+02  -.10559E+02
   .20230E+02   .83510E+02  -.10495E+02
   .20300E+02   .83607E+02  -.10439E+02
   .20380E+02   .83713E+02  -.10378E+02
   .20450E+02   .83801E+02  -.10325E+02
   .20520E+02   .83886E+02  -.10271E+02
   .20600E+02   .83979E+02  -.10210E+02
   .20680E+02   .84067E+02  -.10151E+02
   .20750E+02   .84142E+02  -.10099E+02
   .20820E+02   .84214E+02  -.10047E+02
   .20900E+02   .84294E+02  -.99881E+01
   .20950E+02   .84342E+02  -.99520E+01
   .21000E+02   .84389E+02  -.99160E+01
   .21050E+02   .84435E+02  -.98799E+01
   .21100E+02   .84479E+02  -.98438E+01
   .21180E+02   .84549E+02  -.97882E+01
   .21250E+02   .84608E+02  -.97395E+01
   .21320E+02   .84665E+02  -.96909E+01
   .21400E+02   .84729E+02  -.96353E+01
   .21500E+02   .84806E+02  -.95657E+01
   .21550E+02   .84844E+02  -.95310E+01
   .21600E+02   .84881E+02  -.94962E+01
   .21680E+02   .84938E+02  -.94421E+01
   .21750E+02   .84986E+02  -.93947E+01
   .21820E+02   .85033E+02  -.93473E+01
   .21900E+02   .85085E+02  -.92932E+01
   .21960E+02   .85122E+02  -.92539E+01
   .22030E+02   .85165E+02  -.92081E+01
   .22100E+02   .85207E+02  -.91623E+01
   .22163E+02   .85244E+02  -.91210E+01
   .22230E+02   .85283E+02  -.90786E+01
   .22300E+02   .85322E+02  -.90343E+01
   .22400E+02   .85376E+02  -.89710E+01
   .22500E+02   .85428E+02  -.89076E+01
   .22600E+02   .85478E+02  -.88469E+01
   .22700E+02   .85527E+02  -.87861E+01
   .22800E+02   .85574E+02  -.87253E+01
   .22900E+02   .85620E+02  -.86646E+01
   .23000E+02   .85664E+02  -.86065E+01
   .23100E+02   .85706E+02  -.85485E+01
   .23200E+02   .85748E+02  -.84905E+01
   .23300E+02   .85788E+02  -.84324E+01
   .23380E+02   .85819E+02  -.83878E+01
   .23450E+02   .85846E+02  -.83487E+01
   .23520E+02   .85872E+02  -.83096E+01
   .23600E+02   .85901E+02  -.82650E+01
   .23700E+02   .85937E+02  -.82112E+01
   .23800E+02   .85971E+02  -.81575E+01
   .23900E+02   .86005E+02  -.81037E+01
   .24000E+02   .86038E+02  -.80500E+01
   .24070E+02   .86060E+02  -.80136E+01
   .24150E+02   .86085E+02  -.79720E+01
   .24230E+02   .86109E+02  -.79304E+01
   .24300E+02   .86130E+02  -.78940E+01
   .24400E+02   .86159E+02  -.78439E+01
   .24500E+02   .86187E+02  -.77938E+01
   .24600E+02   .86215E+02  -.77437E+01
   .24700E+02   .86242E+02  -.76936E+01
   .24780E+02   .86262E+02  -.76550E+01
   .24850E+02   .86280E+02  -.76212E+01
   .25000E+02   .86318E+02  -.75487E+01
   .25070E+02   .86335E+02  -.75158E+01
   .25150E+02   .86354E+02  -.74781E+01
   .25230E+02   .86372E+02  -.74405E+01
   .25300E+02   .86388E+02  -.74076E+01
   .25450E+02   .86421E+02  -.73391E+01
   .25600E+02   .86452E+02  -.72707E+01
   .25750E+02   .86482E+02  -.72043E+01
   .25900E+02   .86512E+02  -.71379E+01
   .26050E+02   .86540E+02  -.70734E+01
   .26200E+02   .86567E+02  -.70090E+01
   .26350E+02   .86593E+02  -.69464E+01
   .26500E+02   .86618E+02  -.68839E+01
   .26570E+02   .86629E+02  -.68553E+01
   .26650E+02   .86642E+02  -.68227E+01
   .26730E+02   .86655E+02  -.67901E+01
   .26800E+02   .86665E+02  -.67615E+01
   .26880E+02   .86677E+02  -.67298E+01
   .26950E+02   .86687E+02  -.67021E+01
   .27020E+02   .86697E+02  -.66743E+01
   .27100E+02   .86709E+02  -.66427E+01
   .27200E+02   .86722E+02  -.66043E+01
   .27300E+02   .86736E+02  -.65659E+01
   .27390E+02   .86748E+02  -.65314E+01
   .27470E+02   .86758E+02  -.65007E+01
   .27540E+02   .86767E+02  -.64747E+01
   .27600E+02   .86774E+02  -.64524E+01
   .27700E+02   .86786E+02  -.64153E+01
   .27800E+02   .86798E+02  -.63782E+01
   .27880E+02   .86807E+02  -.63493E+01
   .27950E+02   .86815E+02  -.63240E+01
   .28020E+02   .86824E+02  -.62987E+01
   .28100E+02   .86832E+02  -.62697E+01
   .28180E+02   .86841E+02  -.62414E+01
   .28250E+02   .86848E+02  -.62167E+01
   .28320E+02   .86856E+02  -.61919E+01
   .28400E+02   .86864E+02  -.61636E+01
   .28550E+02   .86878E+02  -.61120E+01
   .28700E+02   .86893E+02  -.60604E+01
   .28900E+02   .86911E+02  -.59936E+01
   .29000E+02   .86919E+02  -.59602E+01
   .29100E+02   .86928E+02  -.59269E+01
   .29180E+02   .86935E+02  -.59009E+01
   .29250E+02   .86940E+02  -.58781E+01
   .29400E+02   .86952E+02  -.58294E+01
   .29550E+02   .86963E+02  -.57819E+01
   .29700E+02   .86974E+02  -.57344E+01
   .29850E+02   .86984E+02  -.56882E+01
   .29920E+02   .86989E+02  -.56666E+01
   .30000E+02   .86994E+02  -.56420E+01
   .30100E+02   .87001E+02  -.56117E+01
   .30200E+02   .87007E+02  -.55815E+01
   .30300E+02   .87013E+02  -.55512E+01
   .30400E+02   .87019E+02  -.55209E+01
   .30600E+02   .87030E+02  -.54625E+01
   .30800E+02   .87040E+02  -.54040E+01
   .31000E+02   .87050E+02  -.53476E+01
   .31200E+02   .87059E+02  -.52911E+01
   .31350E+02   .87065E+02  -.52500E+01
   .31500E+02   .87071E+02  -.52088E+01
   .31700E+02   .87078E+02  -.51556E+01
   .31900E+02   .87085E+02  -.51024E+01
   .32100E+02   .87092E+02  -.50508E+01
   .32300E+02   .87098E+02  -.49993E+01
   .32450E+02   .87102E+02  -.49618E+01
   .32600E+02   .87106E+02  -.49242E+01
   .32800E+02   .87111E+02  -.48755E+01
   .33000E+02   .87115E+02  -.48269E+01
   .33200E+02   .87119E+02  -.47800E+01
   .33400E+02   .87122E+02  -.47332E+01
   .33800E+02   .87129E+02  -.46425E+01
   .34100E+02   .87133E+02  -.45763E+01
   .34500E+02   .87138E+02  -.44903E+01
   .34900E+02   .87142E+02  -.44078E+01
   .35100E+02   .87144E+02  -.43665E+01
   .35300E+02   .87145E+02  -.43253E+01
   .35500E+02   .87146E+02  -.42861E+01
   .35700E+02   .87147E+02  -.42468E+01
   .36030E+02   .87148E+02  -.41821E+01
   .36300E+02   .87148E+02  -.41314E+01
   .36500E+02   .87148E+02  -.40938E+01
   .37000E+02   .87147E+02  -.40032E+01
   .37500E+02   .87145E+02  -.39158E+01
   .38000E+02   .87143E+02  -.38314E+01
   .38500E+02   .87139E+02  -.37491E+01
   .39000E+02   .87135E+02  -.36695E+01
   .39500E+02   .87129E+02  -.35927E+01
   .40000E+02   .87123E+02  -.35184E+01
   .40400E+02   .87118E+02  -.34612E+01
   .40800E+02   .87112E+02  -.34041E+01
   .41100E+02   .87107E+02  -.33633E+01
   .41500E+02   .87101E+02  -.33089E+01
   .42300E+02   .87088E+02  -.32052E+01
   .43000E+02   .87075E+02  -.31187E+01
   .43800E+02   .87060E+02  -.30242E+01
   .44500E+02   .87046E+02  -.29452E+01
   .45300E+02   .87030E+02  -.28586E+01
   .46000E+02   .87015E+02  -.27859E+01
   .46500E+02   .87004E+02  -.27357E+01
   .47000E+02   .86993E+02  -.26869E+01
   .47500E+02   .86982E+02  -.26395E+01
   .48000E+02   .86970E+02  -.25935E+01
   .49000E+02   .86947E+02  -.25051E+01
   .49500E+02   .86936E+02  -.24627E+01
   .50000E+02   .86924E+02  -.24214E+01
   .51000E+02   .86901E+02  -.23417E+01
   .52000E+02   .86877E+02  -.22660E+01
   .53000E+02   .86853E+02  -.21942E+01
   .54000E+02   .86828E+02  -.21259E+01
   .55000E+02   .86804E+02  -.20609E+01
   .56000E+02   .86780E+02  -.19988E+01
   .56800E+02   .86760E+02  -.19512E+01
   .57530E+02   .86742E+02  -.19093E+01
   .58000E+02   .86731E+02  -.18831E+01
   .58500E+02   .86719E+02  -.18559E+01
   .59540E+02   .86693E+02  -.18011E+01
   .60000E+02   .86682E+02  -.17778E+01
   .60900E+02   .86660E+02  -.17332E+01
   .61400E+02   .86647E+02  -.17091E+01
   .61846E+02   .86637E+02  -.16882E+01
   .62900E+02   .86610E+02  -.16402E+01
   .64000E+02   .86583E+02  -.15924E+01
   .64700E+02   .86566E+02  -.15631E+01
   .65400E+02   .86549E+02  -.15346E+01
   .66100E+02   .86531E+02  -.15069E+01
   .66830E+02   .86513E+02  -.14788E+01
   .67400E+02   .86499E+02  -.14575E+01
   .68000E+02   .86483E+02  -.14356E+01
   .69000E+02   .86458E+02  -.14002E+01
   .70000E+02   .86433E+02  -.13661E+01
   .71000E+02   .86407E+02  -.13333E+01
   .72000E+02   .86381E+02  -.13016E+01
   .73500E+02   .86342E+02  -.12563E+01
   .74960E+02   .86302E+02  -.12146E+01
   .75500E+02   .86287E+02  -.11997E+01
   .76000E+02   .86274E+02  -.11862E+01
   .77110E+02   .86243E+02  -.11570E+01
   .78600E+02   .86200E+02  -.11196E+01
   .79300E+02   .86179E+02  -.11027E+01
   .79700E+02   .86168E+02  -.10932E+01
   .80000E+02   .86159E+02  -.10861E+01
   .80800E+02   .86134E+02  -.10678E+01
   .81500E+02   .86113E+02  -.10518E+01
   .82300E+02   .86087E+02  -.10344E+01
   .83000E+02   .86064E+02  -.10192E+01
   .84000E+02   .86030E+02  -.99828E+00
   .84500E+02   .86013E+02  -.98817E+00
   .85000E+02   .85995E+02  -.97807E+00
   .85800E+02   .85966E+02  -.96253E+00
   .86500E+02   .85940E+02  -.94893E+00
   .87300E+02   .85909E+02  -.93412E+00
   .88000E+02   .85880E+02  -.92115E+00
   .88500E+02   .85859E+02  -.91224E+00
   .89000E+02   .85838E+02  -.90333E+00
   .89500E+02   .85816E+02  -.89469E+00
   .90000E+02   .85793E+02  -.88605E+00
   .90800E+02   .85755E+02  -.87272E+00
   .91500E+02   .85720E+02  -.86106E+00
   .92300E+02   .85677E+02  -.84831E+00
   .93000E+02   .85638E+02  -.83716E+00
   .93500E+02   .85608E+02  -.82948E+00
   .94000E+02   .85577E+02  -.82180E+00
   .94500E+02   .85545E+02  -.81434E+00
   .95000E+02   .85510E+02  -.80688E+00
   .95400E+02   .85482E+02  -.80112E+00
   .95800E+02   .85452E+02  -.79537E+00
   .96200E+02   .85420E+02  -.78961E+00
   .96500E+02   .85395E+02  -.78529E+00
   .96900E+02   .85361E+02  -.77977E+00
   .97300E+02   .85325E+02  -.77426E+00
   .97700E+02   .85286E+02  -.76874E+00
   .98000E+02   .85255E+02  -.76460E+00
   .98300E+02   .85223E+02  -.76060E+00
   .98500E+02   .85201E+02  -.75794E+00
   .98800E+02   .85166E+02  -.75394E+00
   .99000E+02   .85141E+02  -.75128E+00
   .99300E+02   .85103E+02  -.74739E+00
   .99500E+02   .85076E+02  -.74480E+00
   .99800E+02   .85033E+02  -.74091E+00
   .10000E+03   .85003E+02  -.73832E+00
   .10015E+03   .84979E+02  -.73642E+00
   .10030E+03   .84955E+02  -.73452E+00
   .10050E+03   .84921E+02  -.73198E+00
   .10080E+03   .84866E+02  -.72818E+00
   .10100E+03   .84827E+02  -.72564E+00
   .10130E+03   .84764E+02  -.72194E+00
   .10140E+03   .84741E+02  -.72071E+00
   .10150E+03   .84718E+02  -.71947E+00
   .10165E+03   .84681E+02  -.71762E+00
   .10180E+03   .84642E+02  -.71577E+00
   .10190E+03   .84615E+02  -.71454E+00
   .10200E+03   .84587E+02  -.71330E+00
   .10215E+03   .84542E+02  -.71149E+00
   .10230E+03   .84494E+02  -.70968E+00
   .10245E+03   .84442E+02  -.70787E+00
   .10260E+03   .84386E+02  -.70606E+00
   .10267E+03   .84358E+02  -.70522E+00
   .10275E+03   .84325E+02  -.70427E+00
   .10283E+03   .84290E+02  -.70332E+00
   .10290E+03   .84258E+02  -.70249E+00
   .10297E+03   .84225E+02  -.70166E+00
   .10305E+03   .84184E+02  -.70071E+00
   .10313E+03   .84141E+02  -.69976E+00
   .10320E+03   .84102E+02  -.69893E+00
   .10328E+03   .84053E+02  -.69799E+00
   .10335E+03   .84008E+02  -.69716E+00
   .10342E+03   .83959E+02  -.69634E+00
   .10350E+03   .83899E+02  -.69540E+00
   .10357E+03   .83843E+02  -.69459E+00
   .10365E+03   .83772E+02  -.69366E+00
   .10368E+03   .83743E+02  -.69331E+00
   .10372E+03   .83703E+02  -.69284E+00
   .10376E+03   .83661E+02  -.69237E+00
   .10380E+03   .83616E+02  -.69191E+00
   .10384E+03   .83569E+02  -.69144E+00
   .10388E+03   .83518E+02  -.69098E+00
   .10391E+03   .83477E+02  -.69063E+00
   .10395E+03   .83418E+02  -.69017E+00
   .10398E+03   .83371E+02  -.68982E+00
   .10402E+03   .83303E+02  -.68936E+00
   .10404E+03   .83267E+02  -.68913E+00
   .10406E+03   .83229E+02  -.68890E+00
   .10408E+03   .83188E+02  -.68867E+00
   .10410E+03   .83145E+02  -.68844E+00
   .10412E+03   .83100E+02  -.68821E+00
   .10415E+03   .83026E+02  -.68787E+00
   .10417E+03   .82973E+02  -.68764E+00
   .10420E+03   .82884E+02  -.68729E+00
   .10421E+03   .82852E+02  -.68717E+00
   .10422E+03   .82818E+02  -.68706E+00
   .10424E+03   .82765E+02  -.68689E+00
   .10425E+03   .82708E+02  -.68672E+00
   .10426E+03   .82646E+02  -.68654E+00
   .10428E+03   .82578E+02  -.68637E+00
   .10429E+03   .82529E+02  -.68626E+00
   .10430E+03   .82477E+02  -.68614E+00
   .10431E+03   .82432E+02  -.68605E+00
   .10431E+03   .82408E+02  -.68601E+00
   .10432E+03   .82390E+02  -.68597E+00
   .10432E+03   .82378E+02  -.68595E+00
   .10432E+03   .82365E+02  -.68593E+00
   .10432E+03   .82358E+02  -.68864E+00
   .10432E+03   .82345E+02  -.68862E+00
   .10432E+03   .82333E+02  -.68860E+00
   .10433E+03   .82320E+02  -.68858E+00
   .10433E+03   .82295E+02  -.68854E+00
   .10434E+03   .82223E+02  -.68844E+00
   .10435E+03   .82144E+02  -.68834E+00
   .10436E+03   .82101E+02  -.68828E+00
   .10436E+03   .82055E+02  -.68823E+00
   .10436E+03   .82007E+02  -.68818E+00
   .10437E+03   .81955E+02  -.68813E+00
   .10438E+03   .81875E+02  -.68806E+00
   .10438E+03   .81826E+02  -.68802E+00
   .10439E+03   .81773E+02  -.68798E+00
   .10439E+03   .81716E+02  -.68794E+00
   .10439E+03   .81670E+02  -.68791E+00
   .10440E+03   .81605E+02  -.68787E+00
   .10440E+03   .81533E+02  -.68783E+00
   .10440E+03   .81474E+02  -.68780E+00
   .10440E+03   .81432E+02  -.68778E+00
   .10441E+03   .81364E+02  -.68775E+00
   .10441E+03   .81316E+02  -.68773E+00
   .10441E+03   .81236E+02  -.68770E+00
   .10442E+03   .81178E+02  -.68767E+00
   .10442E+03   .81081E+02  -.68764E+00
   .10442E+03   .81009E+02  -.68762E+00
   .10442E+03   .80886E+02  -.68759E+00
   .10443E+03   .80791E+02  -.68757E+00
   .10443E+03   .80717E+02  -.68756E+00
   .10443E+03   .80621E+02  -.68754E+00
   .10443E+03   .80554E+02  -.68753E+00
   .10443E+03   .80480E+02  -.68752E+00
   .10443E+03   .80371E+02  -.68751E+00
   .10443E+03   .80203E+02  -.68749E+00
   .10443E+03   .80082E+02  -.68748E+00
   .10443E+03   .79935E+02  -.68747E+00
   .10444E+03   .79515E+02  -.68745E+00
   .10444E+03   .78584E+02  -.68743E+00
   .10444E+03   .79136E+02  -.68742E+00
   .10444E+03   .79419E+02  -.51655E+01
   .10444E+03   .79743E+02  -.74093E+00
   .10444E+03   .80056E+02  -.10819E+01
   .10444E+03   .79328E+02  -.18216E+01
   .10445E+03   .79424E+02  -.30869E+01
   .10445E+03   .79632E+02  -.30869E+01
   .10445E+03   .80038E+02  -.30868E+01
   .10445E+03   .80336E+02  -.30867E+01
   .10445E+03   .80517E+02  -.30866E+01
   .10445E+03   .80658E+02  -.30865E+01
   .10446E+03   .80774E+02  -.30865E+01
   .10446E+03   .80874E+02  -.30864E+01
   .10446E+03   .80961E+02  -.30863E+01
   .10446E+03   .81024E+02  -.30862E+01
   .10446E+03   .81075E+02  -.30861E+01
   .10446E+03   .81109E+02  -.30861E+01
   .10446E+03   .81143E+02  -.30860E+01
   .10447E+03   .81233E+02  -.30859E+01
   .10447E+03   .81288E+02  -.30858E+01
   .10447E+03   .81364E+02  -.30856E+01
   .10447E+03   .81410E+02  -.30856E+01
   .10448E+03   .81475E+02  -.30854E+01
   .10448E+03   .81515E+02  -.30853E+01
   .10448E+03   .81572E+02  -.30852E+01
   .10449E+03   .81608E+02  -.30851E+01
   .10449E+03   .81658E+02  -.30849E+01
   .10449E+03   .81690E+02  -.30848E+01
   .10450E+03   .81765E+02  -.30846E+01
   .10450E+03   .81832E+02  -.30844E+01
   .10450E+03   .81895E+02  -.30841E+01
   .10451E+03   .81952E+02  -.30839E+01
   .10451E+03   .82006E+02  -.30837E+01
   .10452E+03   .82056E+02  -.30834E+01
   .10453E+03   .82103E+02  -.30832E+01
   .10453E+03   .82147E+02  -.30829E+01
   .10454E+03   .82189E+02  -.30827E+01
   .10454E+03   .82229E+02  -.30825E+01
   .10455E+03   .82303E+02  -.30820E+01
   .10456E+03   .82370E+02  -.30815E+01
   .10457E+03   .82433E+02  -.30810E+01
   .10458E+03   .82490E+02  -.30806E+01
   .10459E+03   .82544E+02  -.30801E+01
   .10460E+03   .82593E+02  -.30796E+01
   .10461E+03   .82641E+02  -.30791E+01
   .10462E+03   .82685E+02  -.30787E+01
   .10464E+03   .82747E+02  -.30780E+01
   .10465E+03   .82805E+02  -.30773E+01
   .10466E+03   .82841E+02  -.30768E+01
   .10467E+03   .82876E+02  -.30763E+01
   .10468E+03   .82925E+02  -.30756E+01
   .10470E+03   .82971E+02  -.30749E+01
   .10472E+03   .83029E+02  -.30740E+01
   .10475E+03   .83108E+02  -.30725E+01
   .10478E+03   .83180E+02  -.30711E+01
   .10480E+03   .83225E+02  -.30702E+01
   .10483E+03   .83287E+02  -.30688E+01
   .10485E+03   .83326E+02  -.30678E+01
   .10487E+03   .83364E+02  -.30669E+01
   .10490E+03   .83417E+02  -.30655E+01
   .10492E+03   .83450E+02  -.30645E+01
   .10495E+03   .83498E+02  -.30631E+01
   .10497E+03   .83528E+02  -.30622E+01
   .10500E+03   .83571E+02  -.30608E+01
   .10505E+03   .83638E+02  -.30584E+01
   .10510E+03   .83701E+02  -.30561E+01
   .10515E+03   .83758E+02  -.30538E+01
   .10520E+03   .83812E+02  -.30514E+01
   .10525E+03   .83863E+02  -.30491E+01
   .10530E+03   .83910E+02  -.30468E+01
   .10535E+03   .83955E+02  -.30445E+01
   .10540E+03   .83998E+02  -.30422E+01
   .10545E+03   .84038E+02  -.30398E+01
   .10550E+03   .84077E+02  -.30375E+01
   .10555E+03   .84113E+02  -.30352E+01
   .10560E+03   .84148E+02  -.30329E+01
   .10570E+03   .84215E+02  -.30283E+01
   .10580E+03   .84276E+02  -.30237E+01
   .10590E+03   .84333E+02  -.30191E+01
   .10600E+03   .84386E+02  -.30145E+01
   .10607E+03   .84422E+02  -.30113E+01
   .10615E+03   .84460E+02  -.30077E+01
   .10622E+03   .84493E+02  -.30046E+01
   .10630E+03   .84528E+02  -.30010E+01
   .10640E+03   .84571E+02  -.29964E+01
   .10650E+03   .84611E+02  -.29919E+01
   .10665E+03   .84668E+02  -.29852E+01
   .10680E+03   .84721E+02  -.29784E+01
   .10690E+03   .84755E+02  -.29739E+01
   .10700E+03   .84788E+02  -.29693E+01
   .10715E+03   .84834E+02  -.29627E+01
   .10730E+03   .84878E+02  -.29561E+01
   .10740E+03   .84906E+02  -.29517E+01
   .10750E+03   .84934E+02  -.29473E+01
   .10765E+03   .84973E+02  -.29407E+01
   .10780E+03   .85010E+02  -.29341E+01
   .10790E+03   .85034E+02  -.29297E+01
   .10800E+03   .85058E+02  -.29253E+01
   .10830E+03   .85124E+02  -.29125E+01
   .10850E+03   .85165E+02  -.29040E+01
   .10880E+03   .85224E+02  -.28912E+01
   .10900E+03   .85261E+02  -.28827E+01
   .10930E+03   .85313E+02  -.28700E+01
   .10950E+03   .85346E+02  -.28615E+01
   .10980E+03   .85394E+02  -.28487E+01
   .11000E+03   .85424E+02  -.28402E+01
   .11030E+03   .85467E+02  -.28281E+01
   .11050E+03   .85494E+02  -.28200E+01
   .11080E+03   .85534E+02  -.28078E+01
   .11100E+03   .85559E+02  -.27997E+01
   .11130E+03   .85596E+02  -.27875E+01
   .11150E+03   .85619E+02  -.27794E+01
   .11180E+03   .85653E+02  -.27672E+01
   .11200E+03   .85675E+02  -.27591E+01
   .11230E+03   .85706E+02  -.27475E+01
   .11250E+03   .85727E+02  -.27398E+01
   .11280E+03   .85757E+02  -.27281E+01
   .11300E+03   .85775E+02  -.27204E+01
   .11330E+03   .85803E+02  -.27088E+01
   .11350E+03   .85821E+02  -.27011E+01
   .11380E+03   .85847E+02  -.26894E+01
   .11400E+03   .85864E+02  -.26817E+01
   .11450E+03   .85905E+02  -.26632E+01
   .11500E+03   .85943E+02  -.26447E+01
   .11550E+03   .85980E+02  -.26262E+01
   .11600E+03   .86015E+02  -.26077E+01
   .11650E+03   .86048E+02  -.25900E+01
   .11700E+03   .86079E+02  -.25724E+01
   .11750E+03   .86109E+02  -.25547E+01
   .11800E+03   .86138E+02  -.25370E+01
   .11850E+03   .86165E+02  -.25199E+01
   .11900E+03   .86191E+02  -.25028E+01
   .11950E+03   .86217E+02  -.24861E+01
   .11980E+03   .86231E+02  -.24760E+01
   .12000E+03   .86241E+02  -.24693E+01
   .12050E+03   .86264E+02  -.24531E+01
   .12100E+03   .86287E+02  -.24369E+01
   .12150E+03   .86308E+02  -.24207E+01
   .12200E+03   .86329E+02  -.24046E+01
   .12250E+03   .86349E+02  -.23890E+01
   .12300E+03   .86368E+02  -.23735E+01
   .12350E+03   .86387E+02  -.23580E+01
   .12400E+03   .86405E+02  -.23425E+01
   .12440E+03   .86419E+02  -.23305E+01
   .12480E+03   .86433E+02  -.23186E+01
   .12550E+03   .86456E+02  -.22976E+01
   .12630E+03   .86481E+02  -.22744E+01
   .12700E+03   .86502E+02  -.22541E+01
   .12780E+03   .86524E+02  -.22316E+01
   .12850E+03   .86543E+02  -.22120E+01
   .12930E+03   .86564E+02  -.21901E+01
   .13000E+03   .86581E+02  -.21710E+01
   .13080E+03   .86600E+02  -.21499E+01
   .13150E+03   .86616E+02  -.21313E+01
   .13230E+03   .86633E+02  -.21108E+01
   .13300E+03   .86648E+02  -.20928E+01
   .13380E+03   .86664E+02  -.20728E+01
   .13450E+03   .86677E+02  -.20554E+01
   .13530E+03   .86692E+02  -.20360E+01
   .13600E+03   .86704E+02  -.20190E+01
   .13680E+03   .86718E+02  -.20002E+01
   .13750E+03   .86729E+02  -.19837E+01
   .13830E+03   .86742E+02  -.19654E+01
   .13900E+03   .86753E+02  -.19494E+01
   .13980E+03   .86764E+02  -.19316E+01
   .14050E+03   .86774E+02  -.19160E+01
   .14130E+03   .86785E+02  -.18987E+01
   .14200E+03   .86794E+02  -.18836E+01
   .14300E+03   .86806E+02  -.18627E+01
   .14400E+03   .86818E+02  -.18417E+01
   .14470E+03   .86826E+02  -.18275E+01
   .14540E+03   .86834E+02  -.18133E+01
   .14570E+03   .86837E+02  -.18073E+01
   .14600E+03   .86840E+02  -.18013E+01
   .14670E+03   .86847E+02  -.17875E+01
   .14730E+03   .86853E+02  -.17759E+01
   .14800E+03   .86860E+02  -.17623E+01
   .14900E+03   .86869E+02  -.17433E+01
   .14950E+03   .86874E+02  -.17340E+01
   .14980E+03   .86877E+02  -.17284E+01
   .15000E+03   .86878E+02  -.17247E+01
   .15100E+03   .86887E+02  -.17065E+01
   .15200E+03   .86895E+02  -.16884E+01
   .15300E+03   .86902E+02  -.16708E+01
   .15400E+03   .86910E+02  -.16533E+01
   .15500E+03   .86917E+02  -.16363E+01
   .15600E+03   .86924E+02  -.16194E+01
   .15700E+03   .86930E+02  -.16030E+01
   .15800E+03   .86936E+02  -.15866E+01
   .15900E+03   .86942E+02  -.15707E+01
   .16000E+03   .86948E+02  -.15548E+01
   .16100E+03   .86953E+02  -.15395E+01
   .16200E+03   .86958E+02  -.15242E+01
   .16350E+03   .86965E+02  -.15021E+01
   .16500E+03   .86972E+02  -.14800E+01
   .16700E+03   .86980E+02  -.14517E+01
   .16900E+03   .86988E+02  -.14243E+01
   .17100E+03   .86995E+02  -.13977E+01
   .17300E+03   .87001E+02  -.13719E+01
   .17500E+03   .87007E+02  -.13468E+01
   .17700E+03   .87012E+02  -.13225E+01
   .17850E+03   .87016E+02  -.13049E+01
   .18000E+03   .87019E+02  -.12874E+01
   .18300E+03   .87025E+02  -.12538E+01
   .18500E+03   .87028E+02  -.12322E+01
   .18800E+03   .87033E+02  -.12009E+01
   .19000E+03   .87035E+02  -.11807E+01
   .19300E+03   .87038E+02  -.11516E+01
   .19500E+03   .87040E+02  -.11329E+01
   .19800E+03   .87042E+02  -.11058E+01
   .20000E+03   .87044E+02  -.10883E+01
