    E(keV)         f1           f2     
   .10000E+01   .50193E+02  -.19336E+02
   .10200E+01   .50383E+02  -.18991E+02
   .10300E+01   .50471E+02  -.18823E+02
   .10410E+01   .50562E+02  -.18640E+02
   .10700E+01   .50778E+02  -.18174E+02
   .11000E+01   .50969E+02  -.17710E+02
   .11300E+01   .51124E+02  -.17263E+02
   .11500E+01   .51218E+02  -.16976E+02
   .11700E+01   .51294E+02  -.16693E+02
   .12000E+01   .51386E+02  -.16285E+02
   .12300E+01   .51451E+02  -.15893E+02
   .12540E+01   .51485E+02  -.15585E+02
   .12800E+01   .51500E+02  -.15264E+02
   .13100E+01   .51497E+02  -.14908E+02
   .13400E+01   .51469E+02  -.14566E+02
   .13602E+01   .51438E+02  -.14342E+02
   .14000E+01   .51344E+02  -.13917E+02
   .14300E+01   .51246E+02  -.13608E+02
   .14600E+01   .51123E+02  -.13312E+02
   .14800E+01   .51028E+02  -.13120E+02
   .15000E+01   .50922E+02  -.12933E+02
   .15300E+01   .50740E+02  -.12656E+02
   .15500E+01   .50602E+02  -.12479E+02
   .15700E+01   .50451E+02  -.12303E+02
   .15900E+01   .50287E+02  -.12134E+02
   .16100E+01   .50106E+02  -.11964E+02
   .16300E+01   .49911E+02  -.11803E+02
   .16500E+01   .49700E+02  -.11642E+02
   .16700E+01   .49471E+02  -.11487E+02
   .16900E+01   .49222E+02  -.11333E+02
   .17100E+01   .48952E+02  -.11185E+02
   .17300E+01   .48661E+02  -.11038E+02
   .17500E+01   .48346E+02  -.10896E+02
   .17700E+01   .48001E+02  -.10753E+02
   .17850E+01   .47723E+02  -.10651E+02
   .18000E+01   .47426E+02  -.10549E+02
   .18100E+01   .47216E+02  -.10482E+02
   .18200E+01   .46997E+02  -.10415E+02
   .18350E+01   .46647E+02  -.10318E+02
   .18500E+01   .46270E+02  -.10220E+02
   .18600E+01   .46001E+02  -.10158E+02
   .18700E+01   .45719E+02  -.10096E+02
   .18850E+01   .45264E+02  -.10003E+02
   .19000E+01   .44769E+02  -.99102E+01
   .19100E+01   .44411E+02  -.98507E+01
   .19200E+01   .44030E+02  -.97912E+01
   .19280E+01   .43705E+02  -.97436E+01
   .19350E+01   .43405E+02  -.97020E+01
   .19420E+01   .43088E+02  -.96603E+01
   .19500E+01   .42704E+02  -.96128E+01
   .19600E+01   .42187E+02  -.95565E+01
   .19650E+01   .41909E+02  -.95283E+01
   .19700E+01   .41621E+02  -.95002E+01
   .19780E+01   .41126E+02  -.94552E+01
   .19850E+01   .40658E+02  -.94158E+01
   .19930E+01   .40074E+02  -.93708E+01
   .20000E+01   .39513E+02  -.93314E+01
   .20015E+01   .39386E+02  -.93231E+01
   .20030E+01   .39256E+02  -.93147E+01
   .20050E+01   .39078E+02  -.93036E+01
   .20100E+01   .38608E+02  -.92758E+01
   .20150E+01   .38098E+02  -.92483E+01
   .20200E+01   .37539E+02  -.92209E+01
   .20250E+01   .36919E+02  -.91938E+01
   .20290E+01   .36368E+02  -.91721E+01
   .20320E+01   .35912E+02  -.91559E+01
   .20340E+01   .35584E+02  -.91451E+01
   .20360E+01   .35230E+02  -.91342E+01
   .20384E+01   .34706E+02  -.91212E+01
   .20385E+01   .34752E+02  -.93015E+01
   .20385E+01   .34799E+02  -.91208E+01
   .20391E+01   .34602E+02  -.91172E+01
   .20398E+01   .34265E+02  -.91137E+01
   .20399E+01   .34458E+02  -.97791E+01
   .20399E+01   .34652E+02  -.91132E+01
   .20420E+01   .33903E+02  -.91020E+01
   .20427E+01   .33713E+02  -.90983E+01
   .20435E+01   .33496E+02  -.90941E+01
   .20438E+01   .33400E+02  -.90924E+01
   .20442E+01   .33278E+02  -.90903E+01
   .20444E+01   .33215E+02  -.90892E+01
   .20445E+01   .33183E+02  -.90886E+01
   .20446E+01   .33150E+02  -.90881E+01
   .20447E+01   .33133E+02  -.90879E+01
   .20447E+01   .33116E+02  -.90876E+01
   .20447E+01   .33110E+02  -.90875E+01
   .20447E+01   .33099E+02  -.90873E+01
   .20448E+01   .33089E+02  -.91211E+01
   .20448E+01   .33082E+02  -.91891E+01
   .20448E+01   .33075E+02  -.92569E+01
   .20449E+01   .33065E+02  -.93606E+01
   .20449E+01   .33058E+02  -.93960E+01
   .20449E+01   .33047E+02  -.93965E+01
   .20449E+01   .33040E+02  -.93968E+01
   .20450E+01   .33029E+02  -.93972E+01
   .20450E+01   .33012E+02  -.93980E+01
   .20452E+01   .32956E+02  -.94002E+01
   .20453E+01   .32897E+02  -.94024E+01
   .20455E+01   .32813E+02  -.94054E+01
   .20460E+01   .32550E+02  -.94151E+01
   .20470E+01   .22596E+02  -.94414E+01
   .20471E+01   .32659E+02  -.42627E+02
   .20471E+01   .42721E+02  -.94437E+01
   .20480E+01   .32785E+02  -.94777E+01
   .20490E+01   .29724E+02  -.95225E+01
   .20490E+01   .32333E+02  -.18206E+02
   .20491E+01   .34942E+02  -.95274E+01
   .20493E+01   .32471E+02  -.95453E+01
   .20496E+01   .31190E+02  -.95631E+01
   .20497E+01   .32245E+02  -.13184E+02
   .20497E+01   .33298E+02  -.95684E+01
   .20498E+01   .32367E+02  -.95753E+01
   .20499E+01   .31737E+02  -.95821E+01
   .20500E+01   .32228E+02  -.11436E+02
   .20500E+01   .32713E+02  -.95876E+01
   .20501E+01   .32361E+02  -.95911E+01
   .20501E+01   .32015E+02  -.95945E+01
   .20501E+01   .32231E+02  -.10673E+02
   .20502E+01   .32437E+02  -.96013E+01
   .20502E+01   .32263E+02  -.96029E+01
   .20502E+01   .32071E+02  -.96045E+01
   .20503E+01   .32245E+02  -.10698E+02
   .20503E+01   .32453E+02  -.96113E+01
   .20503E+01   .32355E+02  -.96128E+01
   .20503E+01   .32175E+02  -.96143E+01
   .20504E+01   .32302E+02  -.10548E+02
   .20504E+01   .32394E+02  -.96191E+01
   .20504E+01   .32454E+02  -.96200E+01
   .20504E+01   .32548E+02  -.96210E+01
   .20504E+01   .32485E+02  -.97704E+01
   .20505E+01   .32384E+02  -.96258E+01
   .20511E+01   .31868E+02  -.96769E+01
   .20517E+01   .31596E+02  -.97362E+01
   .20524E+01   .31315E+02  -.98152E+01
   .20530E+01   .31087E+02  -.98919E+01
   .20535E+01   .30902E+02  -.99631E+01
   .20540E+01   .30719E+02  -.10041E+02
   .20545E+01   .30539E+02  -.10126E+02
   .20550E+01   .30361E+02  -.10219E+02
   .20558E+01   .30062E+02  -.10383E+02
   .20565E+01   .29802E+02  -.10543E+02
   .20573E+01   .29507E+02  -.10747E+02
   .20580E+01   .29250E+02  -.10942E+02
   .20585E+01   .29073E+02  -.11092E+02
   .20590E+01   .28897E+02  -.11251E+02
   .20595E+01   .28728E+02  -.11418E+02
   .20600E+01   .28559E+02  -.11594E+02
   .20608E+01   .28311E+02  -.11893E+02
   .20615E+01   .28094E+02  -.12169E+02
   .20623E+01   .27880E+02  -.12503E+02
   .20630E+01   .27693E+02  -.12808E+02
   .20635E+01   .27581E+02  -.13034E+02
   .20640E+01   .27468E+02  -.13263E+02
   .20650E+01   .27281E+02  -.13734E+02
   .20660E+01   .27133E+02  -.14216E+02
   .20670E+01   .27023E+02  -.14702E+02
   .20685E+01   .26935E+02  -.15431E+02
   .20700E+01   .26929E+02  -.16138E+02
   .20710E+01   .26964E+02  -.16589E+02
   .20720E+01   .27026E+02  -.17023E+02
   .20730E+01   .27114E+02  -.17439E+02
   .20740E+01   .27223E+02  -.17830E+02
   .20748E+01   .27323E+02  -.18125E+02
   .20755E+01   .27410E+02  -.18372E+02
   .20763E+01   .27524E+02  -.18645E+02
   .20770E+01   .27624E+02  -.18870E+02
   .20778E+01   .27748E+02  -.19115E+02
   .20785E+01   .27855E+02  -.19317E+02
   .20793E+01   .27979E+02  -.19537E+02
   .20800E+01   .28087E+02  -.19721E+02
   .20810E+01   .28241E+02  -.19969E+02
   .20820E+01   .28396E+02  -.20200E+02
   .20829E+01   .28535E+02  -.20390E+02
   .20838E+01   .28677E+02  -.20581E+02
   .20849E+01   .28830E+02  -.20794E+02
   .20860E+01   .28987E+02  -.20993E+02
   .20880E+01   .29272E+02  -.21332E+02
   .20900E+01   .29529E+02  -.21638E+02
   .20920E+01   .29785E+02  -.21915E+02
   .20940E+01   .30014E+02  -.22172E+02
   .20960E+01   .30243E+02  -.22411E+02
   .20980E+01   .30448E+02  -.22630E+02
   .21000E+01   .30653E+02  -.22839E+02
   .21020E+01   .30831E+02  -.23025E+02
   .21050E+01   .31097E+02  -.23285E+02
   .21070E+01   .31248E+02  -.23440E+02
   .21090E+01   .31399E+02  -.23583E+02
   .21110E+01   .31517E+02  -.23708E+02
   .21130E+01   .31633E+02  -.23824E+02
   .21150E+01   .31701E+02  -.23929E+02
   .21172E+01   .31650E+02  -.24021E+02
   .21172E+01   .31773E+02  -.24437E+02
   .21172E+01   .31895E+02  -.24024E+02
   .21179E+01   .31788E+02  -.24053E+02
   .21186E+01   .31742E+02  -.24077E+02
   .21186E+01   .31790E+02  -.24242E+02
   .21186E+01   .31838E+02  -.24080E+02
   .21200E+01   .31743E+02  -.24127E+02
   .21210E+01   .31697E+02  -.24163E+02
   .21219E+01   .31642E+02  -.24189E+02
   .21225E+01   .31603E+02  -.24204E+02
   .21227E+01   .31586E+02  -.24209E+02
   .21228E+01   .31572E+02  -.24214E+02
   .21230E+01   .31556E+02  -.24218E+02
   .21230E+01   .31550E+02  -.24219E+02
   .21231E+01   .31544E+02  -.24221E+02
   .21231E+01   .31541E+02  -.24221E+02
   .21232E+01   .31537E+02  -.24222E+02
   .21232E+01   .31535E+02  -.24222E+02
   .21232E+01   .31531E+02  -.24318E+02
   .21232E+01   .31527E+02  -.24413E+02
   .21233E+01   .31521E+02  -.24510E+02
   .21233E+01   .31515E+02  -.24511E+02
   .21233E+01   .31509E+02  -.24512E+02
   .21234E+01   .31498E+02  -.24515E+02
   .21235E+01   .31484E+02  -.24517E+02
   .21236E+01   .31465E+02  -.24521E+02
   .21237E+01   .31444E+02  -.24524E+02
   .21240E+01   .31362E+02  -.24534E+02
   .21243E+01   .31233E+02  -.24545E+02
   .21246E+01   .30999E+02  -.24555E+02
   .21253E+01   .21052E+02  -.24579E+02
   .21253E+01   .31663E+02  -.60861E+02
   .21253E+01   .42274E+02  -.24582E+02
   .21256E+01   .33512E+02  -.24591E+02
   .21258E+01   .31860E+02  -.24601E+02
   .21258E+01   .32672E+02  -.27652E+02
   .21259E+01   .33496E+02  -.24604E+02
   .21267E+01   .32030E+02  -.24641E+02
   .21276E+01   .29673E+02  -.24684E+02
   .21276E+01   .31823E+02  -.32148E+02
   .21277E+01   .33926E+02  -.24689E+02
   .21277E+01   .33182E+02  -.24690E+02
   .21277E+01   .32797E+02  -.24691E+02
   .21278E+01   .32667E+02  -.25499E+02
   .21278E+01   .32702E+02  -.24696E+02
   .21281E+01   .32018E+02  -.24710E+02
   .21283E+01   .30995E+02  -.24724E+02
   .21284E+01   .32063E+02  -.27982E+02
   .21284E+01   .32943E+02  -.24729E+02
   .21285E+01   .32091E+02  -.24736E+02
   .21286E+01   .31548E+02  -.24744E+02
   .21287E+01   .31973E+02  -.26369E+02
   .21287E+01   .32404E+02  -.24750E+02
   .21288E+01   .32106E+02  -.24753E+02
   .21288E+01   .31861E+02  -.24756E+02
   .21289E+01   .32050E+02  -.25686E+02
   .21289E+01   .32226E+02  -.24762E+02
   .21289E+01   .32077E+02  -.24763E+02
   .21290E+01   .31941E+02  -.24765E+02
   .21290E+01   .32124E+02  -.25666E+02
   .21290E+01   .32304E+02  -.24771E+02
   .21291E+01   .32226E+02  -.24772E+02
   .21291E+01   .32090E+02  -.24773E+02
   .21291E+01   .32188E+02  -.25404E+02
   .21292E+01   .32326E+02  -.24779E+02
   .21306E+01   .31763E+02  -.24888E+02
   .21320E+01   .31579E+02  -.25024E+02
   .21335E+01   .31411E+02  -.25205E+02
   .21342E+01   .31337E+02  -.25302E+02
   .21350E+01   .31255E+02  -.25428E+02
   .21357E+01   .31178E+02  -.25551E+02
   .21365E+01   .31091E+02  -.25704E+02
   .21380E+01   .30930E+02  -.26024E+02
   .21390E+01   .30835E+02  -.26264E+02
   .21400E+01   .30760E+02  -.26522E+02
   .21415E+01   .30677E+02  -.26945E+02
   .21430E+01   .30645E+02  -.27401E+02
   .21440E+01   .30652E+02  -.27717E+02
   .21450E+01   .30686E+02  -.28036E+02
   .21465E+01   .30783E+02  -.28511E+02
   .21480E+01   .30930E+02  -.28987E+02
   .21490E+01   .31057E+02  -.29280E+02
   .21500E+01   .31200E+02  -.29577E+02
   .21520E+01   .31537E+02  -.30110E+02
   .21530E+01   .31726E+02  -.30361E+02
   .21540E+01   .31915E+02  -.30593E+02
   .21550E+01   .32117E+02  -.30809E+02
   .21560E+01   .32318E+02  -.31007E+02
   .21580E+01   .32732E+02  -.31373E+02
   .21600E+01   .33141E+02  -.31689E+02
   .21620E+01   .33550E+02  -.31957E+02
   .21635E+01   .33850E+02  -.32149E+02
   .21650E+01   .34149E+02  -.32321E+02
   .21670E+01   .34526E+02  -.32522E+02
   .21690E+01   .34904E+02  -.32713E+02
   .21730E+01   .35623E+02  -.33041E+02
   .21770E+01   .36314E+02  -.33316E+02
   .21800E+01   .36819E+02  -.33500E+02
   .21840E+01   .37464E+02  -.33704E+02
   .21880E+01   .38109E+02  -.33870E+02
   .21920E+01   .38732E+02  -.34002E+02
   .21950E+01   .39183E+02  -.34084E+02
   .21990E+01   .39765E+02  -.34151E+02
   .22030E+01   .40328E+02  -.34190E+02
   .22070E+01   .40864E+02  -.34206E+02
   .22100E+01   .41247E+02  -.34207E+02
   .22150E+01   .41855E+02  -.34178E+02
   .22200E+01   .42422E+02  -.34127E+02
   .22250E+01   .42947E+02  -.34057E+02
   .22300E+01   .43439E+02  -.33988E+02
   .22350E+01   .43902E+02  -.33906E+02
   .22400E+01   .44336E+02  -.33824E+02
   .22450E+01   .44747E+02  -.33742E+02
   .22500E+01   .45138E+02  -.33659E+02
   .22580E+01   .45729E+02  -.33526E+02
   .22650E+01   .46215E+02  -.33409E+02
   .22730E+01   .46745E+02  -.33276E+02
   .22800E+01   .47183E+02  -.33159E+02
   .22880E+01   .47664E+02  -.33011E+02
   .22950E+01   .48060E+02  -.32881E+02
   .23030E+01   .48492E+02  -.32732E+02
   .23100E+01   .48847E+02  -.32602E+02
   .23160E+01   .49140E+02  -.32484E+02
   .23210E+01   .49374E+02  -.32385E+02
   .23310E+01   .49815E+02  -.32187E+02
   .23390E+01   .50143E+02  -.32031E+02
   .23460E+01   .50416E+02  -.31894E+02
   .23530E+01   .50676E+02  -.31758E+02
   .23600E+01   .50924E+02  -.31621E+02
   .23700E+01   .51256E+02  -.31426E+02
   .23800E+01   .51563E+02  -.31231E+02
   .23900E+01   .51845E+02  -.31043E+02
   .24000E+01   .52105E+02  -.30855E+02
   .24150E+01   .52451E+02  -.30573E+02
   .24300E+01   .52743E+02  -.30290E+02
   .24400E+01   .52901E+02  -.30108E+02
   .24500E+01   .53027E+02  -.29925E+02
   .24580E+01   .53101E+02  -.29779E+02
   .24650E+01   .53145E+02  -.29652E+02
   .24730E+01   .53164E+02  -.29506E+02
   .24800E+01   .53149E+02  -.29378E+02
   .24880E+01   .53084E+02  -.29239E+02
   .24950E+01   .52971E+02  -.29117E+02
   .24990E+01   .52872E+02  -.29047E+02
   .25030E+01   .52742E+02  -.28977E+02
   .25070E+01   .52569E+02  -.28907E+02
   .25100E+01   .52402E+02  -.28855E+02
   .25130E+01   .52189E+02  -.28803E+02
   .25160E+01   .51913E+02  -.28750E+02
   .25190E+01   .51543E+02  -.28698E+02
   .25210E+01   .51217E+02  -.28663E+02
   .25225E+01   .50911E+02  -.28637E+02
   .25240E+01   .50527E+02  -.28611E+02
   .25255E+01   .50031E+02  -.28585E+02
   .25270E+01   .49354E+02  -.28559E+02
   .25285E+01   .48361E+02  -.28533E+02
   .25300E+01   .46713E+02  -.28506E+02
   .25315E+01   .43187E+02  -.28480E+02
   .25329E+01  -.11318E+02  -.28456E+02
   .25330E+01   .37495E+02  -.18851E+03
   .25330E+01   .86271E+02  -.28454E+02
   .25337E+01   .27080E+02  -.28443E+02
   .25343E+01  -.32203E+03  -.28432E+02
   .25344E+01   .53263E+02  -.12475E+04
   .25344E+01   .42856E+03  -.28430E+02
   .25352E+01   .76495E+02  -.28417E+02
   .25356E+01   .68323E+02  -.28410E+02
   .25360E+01   .64038E+02  -.28403E+02
   .25365E+01   .60805E+02  -.28395E+02
   .25369E+01   .59030E+02  -.28388E+02
   .25371E+01   .58297E+02  -.28385E+02
   .25373E+01   .57634E+02  -.28381E+02
   .25375E+01   .57021E+02  -.28378E+02
   .25377E+01   .56387E+02  -.28374E+02
   .25379E+01   .55886E+02  -.28371E+02
   .25381E+01   .55330E+02  -.28368E+02
   .25382E+01   .54903E+02  -.28365E+02
   .25383E+01   .54696E+02  -.28364E+02
   .25384E+01   .54450E+02  -.28363E+02
   .25385E+01   .54223E+02  -.28361E+02
   .25385E+01   .53948E+02  -.28360E+02
   .25386E+01   .53684E+02  -.28359E+02
   .25387E+01   .53348E+02  -.28358E+02
   .25387E+01   .53207E+02  -.28357E+02
   .25388E+01   .53003E+02  -.28356E+02
   .25388E+01   .52774E+02  -.28356E+02
   .25389E+01   .52511E+02  -.28355E+02
   .25389E+01   .52278E+02  -.28355E+02
   .25389E+01   .51890E+02  -.28354E+02
   .25390E+01   .51139E+02  -.28353E+02
   .25390E+01   .50404E+02  -.28935E+02
   .25390E+01   .49932E+02  -.30128E+02
   .25391E+01   .50414E+02  -.31377E+02
   .25391E+01   .50894E+02  -.31704E+02
   .25391E+01   .51569E+02  -.31711E+02
   .25392E+01   .51799E+02  -.31716E+02
   .25392E+01   .52023E+02  -.31723E+02
   .25393E+01   .52192E+02  -.31731E+02
   .25393E+01   .52326E+02  -.31738E+02
   .25393E+01   .52383E+02  -.31741E+02
   .25394E+01   .52459E+02  -.31747E+02
   .25394E+01   .52564E+02  -.31755E+02
   .25394E+01   .52650E+02  -.31764E+02
   .25395E+01   .52722E+02  -.31773E+02
   .25396E+01   .52833E+02  -.31791E+02
   .25397E+01   .52915E+02  -.31809E+02
   .25398E+01   .53003E+02  -.31831E+02
   .25400E+01   .53057E+02  -.31853E+02
   .25401E+01   .53081E+02  -.31867E+02
   .25402E+01   .53097E+02  -.31880E+02
   .25405E+01   .53113E+02  -.31920E+02
   .25408E+01   .53087E+02  -.31950E+02
   .25410E+01   .52998E+02  -.31972E+02
   .25410E+01   .53020E+02  -.31974E+02
   .25411E+01   .53052E+02  -.32190E+02
   .25411E+01   .53106E+02  -.31982E+02
   .25413E+01   .52994E+02  -.32000E+02
   .25415E+01   .52871E+02  -.32017E+02
   .25416E+01   .52891E+02  -.32161E+02
   .25416E+01   .52908E+02  -.32025E+02
   .25421E+01   .52444E+02  -.32059E+02
   .25426E+01   .46543E+02  -.32085E+02
   .25426E+01   .52833E+02  -.52697E+02
   .25427E+01   .59120E+02  -.32091E+02
   .25431E+01   .52924E+02  -.32115E+02
   .25435E+01   .45407E+02  -.32139E+02
   .25436E+01   .53086E+02  -.57576E+02
   .25436E+01   .60735E+02  -.32143E+02
   .25437E+01   .55296E+02  -.32147E+02
   .25438E+01   .52665E+02  -.32151E+02
   .25438E+01   .54318E+02  -.38998E+02
   .25439E+01   .56039E+02  -.32155E+02
   .25440E+01   .53515E+02  -.32160E+02
   .25442E+01   .50029E+02  -.32166E+02
   .25442E+01   .53632E+02  -.45040E+02
   .25443E+01   .57041E+02  -.32170E+02
   .25443E+01   .56324E+02  -.32170E+02
   .25443E+01   .55682E+02  -.32171E+02
   .25443E+01   .55094E+02  -.35285E+02
   .25444E+01   .55095E+02  -.32175E+02
   .25444E+01   .53884E+02  -.32177E+02
   .25445E+01   .52239E+02  -.32178E+02
   .25445E+01   .54273E+02  -.40926E+02
   .25446E+01   .56367E+02  -.32183E+02
   .25446E+01   .54662E+02  -.32184E+02
   .25446E+01   .53088E+02  -.32186E+02
   .25447E+01   .54953E+02  -.40170E+02
   .25447E+01   .56766E+02  -.32190E+02
   .25448E+01   .55781E+02  -.32191E+02
   .25448E+01   .54919E+02  -.32192E+02
   .25448E+01   .55401E+02  -.36778E+02
   .25449E+01   .55818E+02  -.32196E+02
   .25449E+01   .56284E+02  -.36764E+02
   .25450E+01   .56609E+02  -.32199E+02
   .25450E+01   .56837E+02  -.32200E+02
   .25450E+01   .57315E+02  -.32201E+02
   .25450E+01   .56892E+02  -.32682E+02
   .25450E+01   .56379E+02  -.32203E+02
   .25460E+01   .54641E+02  -.32193E+02
   .25470E+01   .54382E+02  -.32182E+02
   .25480E+01   .54289E+02  -.32172E+02
   .25490E+01   .54258E+02  -.32161E+02
   .25510E+01   .54275E+02  -.32140E+02
   .25530E+01   .54334E+02  -.32119E+02
   .25550E+01   .54424E+02  -.32098E+02
   .25570E+01   .54529E+02  -.32077E+02
   .25600E+01   .54701E+02  -.32045E+02
   .25630E+01   .54882E+02  -.32014E+02
   .25650E+01   .55006E+02  -.31993E+02
   .25680E+01   .55189E+02  -.31961E+02
   .25700E+01   .55310E+02  -.31940E+02
   .25730E+01   .55485E+02  -.31909E+02
   .25750E+01   .55597E+02  -.31888E+02
   .25770E+01   .55706E+02  -.31867E+02
   .25800E+01   .55860E+02  -.31835E+02
   .25850E+01   .56098E+02  -.31782E+02
   .25900E+01   .56314E+02  -.31730E+02
   .25950E+01   .56514E+02  -.31677E+02
   .26000E+01   .56696E+02  -.31624E+02
   .26050E+01   .56869E+02  -.31572E+02
   .26100E+01   .57038E+02  -.31519E+02
   .26160E+01   .57231E+02  -.31456E+02
   .26210E+01   .57380E+02  -.31403E+02
   .26215E+01   .57395E+02  -.31395E+02
   .26220E+01   .57410E+02  -.31387E+02
   .26230E+01   .57439E+02  -.31371E+02
   .26360E+01   .57816E+02  -.31162E+02
   .26500E+01   .58199E+02  -.30938E+02
   .26600E+01   .58459E+02  -.30777E+02
   .26700E+01   .58706E+02  -.30616E+02
   .26800E+01   .58939E+02  -.30455E+02
   .26900E+01   .59159E+02  -.30293E+02
   .27050E+01   .59467E+02  -.30058E+02
   .27200E+01   .59754E+02  -.29824E+02
   .27300E+01   .59935E+02  -.29673E+02
   .27400E+01   .60106E+02  -.29521E+02
   .27500E+01   .60268E+02  -.29371E+02
   .27600E+01   .60421E+02  -.29219E+02
   .27700E+01   .60566E+02  -.29074E+02
   .27800E+01   .60701E+02  -.28928E+02
   .27950E+01   .60885E+02  -.28709E+02
   .28100E+01   .61045E+02  -.28491E+02
   .28200E+01   .61133E+02  -.28349E+02
   .28300E+01   .61204E+02  -.28207E+02
   .28400E+01   .61253E+02  -.28065E+02
   .28500E+01   .61272E+02  -.27923E+02
   .28550E+01   .61265E+02  -.27855E+02
   .28600E+01   .61245E+02  -.27786E+02
   .28650E+01   .61205E+02  -.27718E+02
   .28700E+01   .61136E+02  -.27649E+02
   .28730E+01   .61074E+02  -.27608E+02
   .28760E+01   .60990E+02  -.27567E+02
   .28790E+01   .60874E+02  -.27526E+02
   .28820E+01   .60706E+02  -.27485E+02
   .28850E+01   .60444E+02  -.27444E+02
   .28880E+01   .59981E+02  -.27403E+02
   .28895E+01   .59577E+02  -.27382E+02
   .28910E+01   .58894E+02  -.27362E+02
   .28920E+01   .58081E+02  -.27348E+02
   .28930E+01   .56486E+02  -.27335E+02
   .28940E+01   .51758E+02  -.27321E+02
   .28949E+01  -.92402E+02  -.27308E+02
   .28950E+01   .60987E+02  -.51821E+03
   .28951E+01   .21438E+03  -.27307E+02
   .28960E+01   .70015E+02  -.27294E+02
   .28965E+01   .66948E+02  -.27287E+02
   .28970E+01   .65375E+02  -.27281E+02
   .28976E+01   .64242E+02  -.27272E+02
   .28979E+01   .63831E+02  -.27268E+02
   .28982E+01   .63481E+02  -.27264E+02
   .28985E+01   .63175E+02  -.27260E+02
   .28988E+01   .62896E+02  -.27256E+02
   .28991E+01   .62632E+02  -.27252E+02
   .28993E+01   .62456E+02  -.27250E+02
   .28995E+01   .62323E+02  -.27248E+02
   .28996E+01   .62182E+02  -.27246E+02
   .28997E+01   .62082E+02  -.27244E+02
   .28998E+01   .61974E+02  -.27243E+02
   .28999E+01   .61853E+02  -.27242E+02
   .29000E+01   .61786E+02  -.27241E+02
   .29000E+01   .61712E+02  -.27240E+02
   .29000E+01   .61628E+02  -.27240E+02
   .29001E+01   .61531E+02  -.27239E+02
   .29002E+01   .61413E+02  -.27238E+02
   .29002E+01   .61229E+02  -.27238E+02
   .29002E+01   .60935E+02  -.27237E+02
   .29003E+01   .60701E+02  -.27684E+02
   .29004E+01   .60792E+02  -.28136E+02
   .29004E+01   .61020E+02  -.28323E+02
   .29004E+01   .61230E+02  -.28326E+02
   .29005E+01   .61320E+02  -.28330E+02
   .29005E+01   .61384E+02  -.28333E+02
   .29006E+01   .61432E+02  -.28336E+02
   .29007E+01   .61469E+02  -.28340E+02
   .29007E+01   .61499E+02  -.28343E+02
   .29008E+01   .61544E+02  -.28349E+02
   .29009E+01   .61576E+02  -.28356E+02
   .29010E+01   .61599E+02  -.28362E+02
   .29011E+01   .61622E+02  -.28372E+02
   .29013E+01   .61636E+02  -.28382E+02
   .29016E+01   .61649E+02  -.28401E+02
   .29019E+01   .61652E+02  -.28417E+02
   .29023E+01   .61647E+02  -.28438E+02
   .29026E+01   .61633E+02  -.28449E+02
   .29029E+01   .61612E+02  -.28460E+02
   .29036E+01   .61503E+02  -.28484E+02
   .29036E+01   .61532E+02  -.28609E+02
   .29037E+01   .61560E+02  -.28488E+02
   .29041E+01   .61391E+02  -.28502E+02
   .29046E+01   .59745E+02  -.28512E+02
   .29046E+01   .61503E+02  -.34168E+02
   .29047E+01   .63259E+02  -.28515E+02
   .29051E+01   .61523E+02  -.28523E+02
   .29055E+01   .59189E+02  -.28532E+02
   .29056E+01   .61552E+02  -.36185E+02
   .29056E+01   .63886E+02  -.28535E+02
   .29057E+01   .62313E+02  -.28537E+02
   .29058E+01   .61540E+02  -.28538E+02
   .29059E+01   .61956E+02  -.30418E+02
   .29059E+01   .62395E+02  -.28541E+02
   .29060E+01   .61696E+02  -.28543E+02
   .29062E+01   .60673E+02  -.28545E+02
   .29062E+01   .61776E+02  -.32468E+02
   .29063E+01   .62806E+02  -.28546E+02
   .29063E+01   .62575E+02  -.28546E+02
   .29063E+01   .62235E+02  -.29401E+02
   .29064E+01   .62132E+02  -.28548E+02
   .29064E+01   .61826E+02  -.28549E+02
   .29065E+01   .61446E+02  -.28549E+02
   .29065E+01   .62014E+02  -.31176E+02
   .29066E+01   .62650E+02  -.28551E+02
   .29066E+01   .62118E+02  -.28551E+02
   .29067E+01   .61695E+02  -.28552E+02
   .29067E+01   .62237E+02  -.30972E+02
   .29068E+01   .62726E+02  -.28553E+02
   .29068E+01   .62409E+02  -.28553E+02
   .29068E+01   .62258E+02  -.28554E+02
   .29069E+01   .62435E+02  -.30217E+02
   .29069E+01   .62600E+02  -.28555E+02
   .29069E+01   .62719E+02  -.28555E+02
   .29069E+01   .62838E+02  -.28555E+02
   .29070E+01   .62762E+02  -.29432E+02
   .29070E+01   .62826E+02  -.28557E+02
   .29085E+01   .62065E+02  -.28568E+02
   .29100E+01   .62009E+02  -.28580E+02
   .29115E+01   .62004E+02  -.28592E+02
   .29130E+01   .62021E+02  -.28604E+02
   .29160E+01   .62079E+02  -.28605E+02
   .29190E+01   .62151E+02  -.28606E+02
   .29220E+01   .62231E+02  -.28590E+02
   .29240E+01   .62288E+02  -.28580E+02
   .29270E+01   .62368E+02  -.28554E+02
   .29300E+01   .62449E+02  -.28528E+02
   .29350E+01   .62580E+02  -.28468E+02
   .29400E+01   .62702E+02  -.28401E+02
   .29450E+01   .62813E+02  -.28329E+02
   .29500E+01   .62914E+02  -.28257E+02
   .29580E+01   .63064E+02  -.28148E+02
   .29650E+01   .63187E+02  -.28053E+02
   .29730E+01   .63319E+02  -.27944E+02
   .29800E+01   .63426E+02  -.27849E+02
   .29900E+01   .63571E+02  -.27725E+02
   .30000E+01   .63714E+02  -.27602E+02
   .30060E+01   .63798E+02  -.27525E+02
   .30120E+01   .63876E+02  -.27449E+02
   .30180E+01   .63952E+02  -.27373E+02
   .30243E+01   .64029E+02  -.27293E+02
   .30370E+01   .64173E+02  -.27141E+02
   .30500E+01   .64307E+02  -.26985E+02
   .30650E+01   .64443E+02  -.26806E+02
   .30720E+01   .64498E+02  -.26722E+02
   .30800E+01   .64555E+02  -.26626E+02
   .30870E+01   .64598E+02  -.26543E+02
   .30950E+01   .64637E+02  -.26447E+02
   .31020E+01   .64661E+02  -.26363E+02
   .31100E+01   .64672E+02  -.26267E+02
   .31140E+01   .64669E+02  -.26219E+02
   .31180E+01   .64657E+02  -.26172E+02
   .31220E+01   .64635E+02  -.26124E+02
   .31260E+01   .64598E+02  -.26076E+02
   .31300E+01   .64539E+02  -.26028E+02
   .31320E+01   .64498E+02  -.26004E+02
   .31340E+01   .64445E+02  -.25980E+02
   .31360E+01   .64377E+02  -.25956E+02
   .31380E+01   .64284E+02  -.25932E+02
   .31390E+01   .64223E+02  -.25920E+02
   .31400E+01   .64144E+02  -.25908E+02
   .31408E+01   .64052E+02  -.25899E+02
   .31416E+01   .63405E+02  -.25890E+02
   .31416E+01   .64014E+02  -.27949E+02
   .31417E+01   .64623E+02  -.25888E+02
   .31423E+01   .63960E+02  -.25881E+02
   .31430E+01   .63107E+02  -.25874E+02
   .31430E+01   .63920E+02  -.28622E+02
   .31431E+01   .64732E+02  -.25872E+02
   .31436E+01   .63926E+02  -.25866E+02
   .31441E+01   .63785E+02  -.25861E+02
   .31446E+01   .63658E+02  -.25855E+02
   .31450E+01   .63546E+02  -.25851E+02
   .31454E+01   .63414E+02  -.25846E+02
   .31457E+01   .63295E+02  -.25843E+02
   .31458E+01   .63227E+02  -.25841E+02
   .31460E+01   .63150E+02  -.25839E+02
   .31462E+01   .63029E+02  -.25837E+02
   .31463E+01   .62967E+02  -.25836E+02
   .31464E+01   .62888E+02  -.25835E+02
   .31465E+01   .62797E+02  -.25834E+02
   .31465E+01   .62745E+02  -.25833E+02
   .31466E+01   .62675E+02  -.25832E+02
   .31467E+01   .62609E+02  -.25832E+02
   .31467E+01   .62532E+02  -.25831E+02
   .31467E+01   .62441E+02  -.25831E+02
   .31468E+01   .62327E+02  -.25830E+02
   .31469E+01   .62139E+02  -.25830E+02
   .31469E+01   .61864E+02  -.25829E+02
   .31470E+01   .61635E+02  -.26248E+02
   .31470E+01   .61655E+02  -.26672E+02
   .31470E+01   .61866E+02  -.27018E+02
   .31471E+01   .62125E+02  -.27018E+02
   .31472E+01   .62255E+02  -.27017E+02
   .31472E+01   .62337E+02  -.27017E+02
   .31472E+01   .62398E+02  -.27016E+02
   .31473E+01   .62445E+02  -.27015E+02
   .31474E+01   .62482E+02  -.27015E+02
   .31474E+01   .62512E+02  -.27014E+02
   .31475E+01   .62555E+02  -.27013E+02
   .31476E+01   .62581E+02  -.27012E+02
   .31477E+01   .62593E+02  -.27010E+02
   .31478E+01   .62593E+02  -.27009E+02
   .31480E+01   .62564E+02  -.27007E+02
   .31482E+01   .62495E+02  -.27004E+02
   .31484E+01   .62379E+02  -.27002E+02
   .31486E+01   .62202E+02  -.27000E+02
   .31488E+01   .61934E+02  -.26997E+02
   .31492E+01   .60789E+02  -.26993E+02
   .31497E+01   .44353E+02  -.26987E+02
   .31497E+01   .62284E+02  -.87617E+02
   .31498E+01   .80172E+02  -.26985E+02
   .31500E+01   .65464E+02  -.26983E+02
   .31502E+01   .53868E+02  -.26980E+02
   .31503E+01   .66235E+02  -.69436E+02
   .31503E+01   .78663E+02  -.26979E+02
   .31512E+01   .65448E+02  -.26969E+02
   .31521E+01   .57823E+02  -.26958E+02
   .31521E+01   .65398E+02  -.50547E+02
   .31522E+01   .72373E+02  -.26956E+02
   .31525E+01   .65858E+02  -.26953E+02
   .31528E+01   .62582E+02  -.26950E+02
   .31528E+01   .65213E+02  -.36383E+02
   .31529E+01   .68153E+02  -.26948E+02
   .31530E+01   .66093E+02  -.26947E+02
   .31531E+01   .64617E+02  -.26946E+02
   .31532E+01   .65716E+02  -.31644E+02
   .31532E+01   .66780E+02  -.26944E+02
   .31533E+01   .65819E+02  -.26944E+02
   .31533E+01   .65062E+02  -.26943E+02
   .31534E+01   .66000E+02  -.31312E+02
   .31534E+01   .66919E+02  -.26942E+02
   .31534E+01   .66563E+02  -.26942E+02
   .31535E+01   .66089E+02  -.26941E+02
   .31535E+01   .66397E+02  -.29847E+02
   .31536E+01   .66604E+02  -.26940E+02
   .31536E+01   .66919E+02  -.26940E+02
   .31536E+01   .67089E+02  -.26940E+02
   .31536E+01   .66901E+02  -.28042E+02
   .31537E+01   .66894E+02  -.26939E+02
   .31560E+01   .65401E+02  -.26912E+02
   .31580E+01   .65302E+02  -.26889E+02
   .31600E+01   .65286E+02  -.26865E+02
   .31620E+01   .65299E+02  -.26842E+02
   .31640E+01   .65326E+02  -.26819E+02
   .31660E+01   .65358E+02  -.26795E+02
   .31700E+01   .65431E+02  -.26749E+02
   .31750E+01   .65525E+02  -.26690E+02
   .31800E+01   .65618E+02  -.26632E+02
   .31850E+01   .65708E+02  -.26574E+02
   .31900E+01   .65795E+02  -.26515E+02
   .31970E+01   .65911E+02  -.26434E+02
   .32050E+01   .66037E+02  -.26341E+02
   .32130E+01   .66156E+02  -.26247E+02
   .32200E+01   .66256E+02  -.26166E+02
   .32280E+01   .66367E+02  -.26077E+02
   .32350E+01   .66460E+02  -.25999E+02
   .32500E+01   .66650E+02  -.25832E+02
   .32650E+01   .66829E+02  -.25665E+02
   .32800E+01   .67000E+02  -.25499E+02
   .32950E+01   .67162E+02  -.25339E+02
   .33100E+01   .67317E+02  -.25179E+02
   .33250E+01   .67466E+02  -.25020E+02
   .33400E+01   .67610E+02  -.24860E+02
   .33550E+01   .67748E+02  -.24707E+02
   .33700E+01   .67881E+02  -.24554E+02
   .33850E+01   .68010E+02  -.24401E+02
   .34000E+01   .68135E+02  -.24249E+02
   .34200E+01   .68296E+02  -.24052E+02
   .34500E+01   .68524E+02  -.23758E+02
   .34700E+01   .68670E+02  -.23569E+02
   .35000E+01   .68878E+02  -.23285E+02
   .35200E+01   .69010E+02  -.23102E+02
   .35500E+01   .69201E+02  -.22827E+02
   .35800E+01   .69382E+02  -.22562E+02
   .36000E+01   .69498E+02  -.22385E+02
   .36300E+01   .69665E+02  -.22127E+02
   .36500E+01   .69772E+02  -.21955E+02
   .36700E+01   .69876E+02  -.21789E+02
   .37000E+01   .70025E+02  -.21540E+02
   .37200E+01   .70121E+02  -.21379E+02
   .37500E+01   .70260E+02  -.21138E+02
   .37700E+01   .70350E+02  -.20982E+02
   .38000E+01   .70480E+02  -.20748E+02
   .38200E+01   .70564E+02  -.20595E+02
   .38500E+01   .70684E+02  -.20365E+02
   .38700E+01   .70761E+02  -.20217E+02
   .39000E+01   .70873E+02  -.19995E+02
   .39200E+01   .70945E+02  -.19851E+02
   .39500E+01   .71048E+02  -.19636E+02
   .40000E+01   .71213E+02  -.19288E+02
   .40100E+01   .71245E+02  -.19218E+02
   .40200E+01   .71277E+02  -.19149E+02
   .40400E+01   .71338E+02  -.19013E+02
   .40600E+01   .71396E+02  -.18878E+02
   .40730E+01   .71434E+02  -.18791E+02
   .40860E+01   .71470E+02  -.18705E+02
   .41100E+01   .71536E+02  -.18549E+02
   .41400E+01   .71615E+02  -.18354E+02
   .41600E+01   .71665E+02  -.18228E+02
   .41900E+01   .71739E+02  -.18039E+02
   .42200E+01   .71809E+02  -.17856E+02
   .42500E+01   .71877E+02  -.17673E+02
   .43000E+01   .71986E+02  -.17378E+02
   .43500E+01   .72088E+02  -.17090E+02
   .44000E+01   .72182E+02  -.16803E+02
   .44500E+01   .72269E+02  -.16531E+02
   .44700E+01   .72302E+02  -.16423E+02
   .45000E+01   .72351E+02  -.16260E+02
   .45400E+01   .72413E+02  -.16049E+02
   .45800E+01   .72470E+02  -.15838E+02
   .46200E+01   .72523E+02  -.15636E+02
   .46500E+01   .72560E+02  -.15484E+02
   .46900E+01   .72607E+02  -.15290E+02
   .47300E+01   .72651E+02  -.15096E+02
   .47700E+01   .72691E+02  -.14909E+02
   .48000E+01   .72720E+02  -.14769E+02
   .48500E+01   .72764E+02  -.14543E+02
   .49000E+01   .72805E+02  -.14323E+02
   .49500E+01   .72843E+02  -.14111E+02
   .50000E+01   .72878E+02  -.13899E+02
   .50500E+01   .72910E+02  -.13695E+02
   .51000E+01   .72939E+02  -.13496E+02
   .51500E+01   .72966E+02  -.13304E+02
   .52000E+01   .72990E+02  -.13112E+02
   .52600E+01   .73016E+02  -.12893E+02
   .53100E+01   .73037E+02  -.12710E+02
   .53600E+01   .73055E+02  -.12535E+02
   .54147E+01   .73072E+02  -.12343E+02
   .54900E+01   .73092E+02  -.12090E+02
   .55600E+01   .73107E+02  -.11859E+02
   .56300E+01   .73118E+02  -.11636E+02
   .57000E+01   .73124E+02  -.11419E+02
   .57800E+01   .73129E+02  -.11180E+02
   .58500E+01   .73130E+02  -.10976E+02
   .59200E+01   .73128E+02  -.10778E+02
   .60000E+01   .73121E+02  -.10558E+02
   .60500E+01   .73116E+02  -.10426E+02
   .61000E+01   .73109E+02  -.10294E+02
   .62000E+01   .73092E+02  -.10041E+02
   .63000E+01   .73072E+02  -.97978E+01
   .64038E+01   .73047E+02  -.95555E+01
   .64800E+01   .73026E+02  -.93860E+01
   .65500E+01   .73006E+02  -.92302E+01
   .66300E+01   .72981E+02  -.90615E+01
   .67000E+01   .72957E+02  -.89138E+01
   .68500E+01   .72901E+02  -.86150E+01
   .70000E+01   .72841E+02  -.83323E+01
   .70900E+01   .72803E+02  -.81678E+01
   .71400E+01   .72781E+02  -.80787E+01
   .71808E+01   .72761E+02  -.80071E+01
   .72900E+01   .72708E+02  -.78206E+01
   .74000E+01   .72652E+02  -.76399E+01
   .75000E+01   .72598E+02  -.74814E+01
   .76000E+01   .72542E+02  -.73278E+01
   .77000E+01   .72483E+02  -.71792E+01
   .78000E+01   .72423E+02  -.70355E+01
   .79000E+01   .72359E+02  -.68965E+01
   .80000E+01   .72294E+02  -.67619E+01
   .80200E+01   .72281E+02  -.67353E+01
   .80478E+01   .72262E+02  -.66986E+01
   .81700E+01   .72178E+02  -.65412E+01
   .83000E+01   .72083E+02  -.63803E+01
   .84000E+01   .72007E+02  -.62609E+01
   .85000E+01   .71929E+02  -.61451E+01
   .86500E+01   .71805E+02  -.59778E+01
   .88000E+01   .71675E+02  -.58179E+01
   .89000E+01   .71583E+02  -.57151E+01
   .90000E+01   .71489E+02  -.56153E+01
   .90700E+01   .71420E+02  -.55471E+01
   .91500E+01   .71338E+02  -.54692E+01
   .92200E+01   .71264E+02  -.54039E+01
   .93000E+01   .71176E+02  -.53293E+01
   .94000E+01   .71061E+02  -.52392E+01
   .95000E+01   .70940E+02  -.51515E+01
   .95700E+01   .70852E+02  -.50922E+01
   .96500E+01   .70746E+02  -.50244E+01
   .97200E+01   .70649E+02  -.49674E+01
   .98000E+01   .70533E+02  -.49022E+01
   .98500E+01   .70457E+02  -.48629E+01
   .99000E+01   .70378E+02  -.48235E+01
   .99500E+01   .70297E+02  -.47851E+01
   .10000E+02   .70213E+02  -.47467E+01
   .10070E+02   .70089E+02  -.46942E+01
   .10150E+02   .69938E+02  -.46342E+01
   .10220E+02   .69796E+02  -.45837E+01
   .10260E+02   .69711E+02  -.45548E+01
   .10300E+02   .69622E+02  -.45260E+01
   .10340E+02   .69529E+02  -.44982E+01
   .10380E+02   .69432E+02  -.44704E+01
   .10410E+02   .69356E+02  -.44495E+01
   .10450E+02   .69251E+02  -.44218E+01
   .10490E+02   .69140E+02  -.43950E+01
   .10530E+02   .69022E+02  -.43682E+01
   .10570E+02   .68898E+02  -.43415E+01
   .10600E+02   .68800E+02  -.43214E+01
   .10640E+02   .68661E+02  -.42955E+01
   .10680E+02   .68512E+02  -.42696E+01
   .10710E+02   .68393E+02  -.42502E+01
   .10750E+02   .68223E+02  -.42244E+01
   .10770E+02   .68132E+02  -.42119E+01
   .10790E+02   .68036E+02  -.41994E+01
   .10810E+02   .67937E+02  -.41870E+01
   .10830E+02   .67832E+02  -.41745E+01
   .10850E+02   .67721E+02  -.41620E+01
   .10870E+02   .67604E+02  -.41495E+01
   .10885E+02   .67511E+02  -.41402E+01
   .10900E+02   .67414E+02  -.41308E+01
   .10920E+02   .67276E+02  -.41188E+01
   .10940E+02   .67129E+02  -.41068E+01
   .10960E+02   .66970E+02  -.40947E+01
   .10980E+02   .66797E+02  -.40827E+01
   .10995E+02   .66656E+02  -.40737E+01
   .11010E+02   .66505E+02  -.40647E+01
   .11020E+02   .66397E+02  -.40587E+01
   .11030E+02   .66284E+02  -.40526E+01
   .11040E+02   .66163E+02  -.40466E+01
   .11050E+02   .66034E+02  -.40406E+01
   .11060E+02   .65897E+02  -.40348E+01
   .11070E+02   .65749E+02  -.40290E+01
   .11080E+02   .65589E+02  -.40232E+01
   .11090E+02   .65415E+02  -.40174E+01
   .11100E+02   .65225E+02  -.40116E+01
   .11110E+02   .65014E+02  -.40058E+01
   .11120E+02   .64778E+02  -.40000E+01
   .11125E+02   .64649E+02  -.39971E+01
   .11130E+02   .64510E+02  -.39942E+01
   .11135E+02   .64362E+02  -.39913E+01
   .11140E+02   .64201E+02  -.39884E+01
   .11145E+02   .64026E+02  -.39855E+01
   .11150E+02   .63835E+02  -.39826E+01
   .11155E+02   .63623E+02  -.39797E+01
   .11160E+02   .63387E+02  -.39768E+01
   .11165E+02   .63120E+02  -.39739E+01
   .11170E+02   .62813E+02  -.39710E+01
   .11173E+02   .62604E+02  -.39693E+01
   .11175E+02   .62452E+02  -.39681E+01
   .11178E+02   .62202E+02  -.39664E+01
   .11180E+02   .62016E+02  -.39652E+01
   .11183E+02   .61705E+02  -.39635E+01
   .11185E+02   .61469E+02  -.39623E+01
   .11188E+02   .61061E+02  -.39606E+01
   .11190E+02   .60741E+02  -.39594E+01
   .11192E+02   .60369E+02  -.39583E+01
   .11194E+02   .59928E+02  -.39571E+01
   .11196E+02   .59536E+02  -.39562E+01
   .11197E+02   .59073E+02  -.39554E+01
   .11198E+02   .58711E+02  -.39548E+01
   .11199E+02   .58294E+02  -.39542E+01
   .11200E+02   .57806E+02  -.39536E+01
   .11201E+02   .57221E+02  -.39531E+01
   .11202E+02   .56503E+02  -.39525E+01
   .11203E+02   .55591E+02  -.39519E+01
   .11204E+02   .54375E+02  -.39513E+01
   .11205E+02   .52645E+02  -.39507E+01
   .11206E+02   .50889E+02  -.39503E+01
   .11206E+02   .48267E+02  -.39499E+01
   .11207E+02   .43692E+02  -.39495E+01
   .11208E+02   .26454E+02  -.39491E+01
   .11208E+02   .32180E+02  -.28910E+02
   .11208E+02   .37722E+02  -.53870E+02
   .11208E+02   .48058E+02  -.39488E+01
   .11209E+02   .20348E+02  -.39485E+01
   .11209E+02  -.60373E+02  -.39483E+01
   .11210E+02   .62098E+02  -.43895E+03
   .11210E+02   .18467E+03  -.39480E+01
   .11210E+02   .99831E+02  -.39477E+01
   .11211E+02   .88873E+02  -.39475E+01
   .11211E+02   .82503E+02  -.39473E+01
   .11211E+02   .78296E+02  -.39472E+01
   .11212E+02   .75275E+02  -.39470E+01
   .11212E+02   .72974E+02  -.39468E+01
   .11212E+02   .71706E+02  -.39467E+01
   .11212E+02   .70596E+02  -.39466E+01
   .11212E+02   .69605E+02  -.39465E+01
   .11213E+02   .68837E+02  -.39464E+01
   .11213E+02   .67877E+02  -.39462E+01
   .11213E+02   .67102E+02  -.39461E+01
   .11213E+02   .66359E+02  -.39460E+01
   .11213E+02   .65635E+02  -.39459E+01
   .11214E+02   .65242E+02  -.39458E+01
   .11214E+02   .64822E+02  -.39458E+01
   .11214E+02   .64209E+02  -.39457E+01
   .11214E+02   .63742E+02  -.39456E+01
   .11214E+02   .63156E+02  -.39455E+01
   .11214E+02   .62066E+02  -.39455E+01
   .11214E+02   .61075E+02  -.42609E+01
   .11215E+02   .60003E+02  -.53710E+01
   .11215E+02   .59665E+02  -.67803E+01
   .11215E+02   .60097E+02  -.85467E+01
   .11215E+02   .60764E+02  -.86003E+01
   .11215E+02   .61289E+02  -.86527E+01
   .11215E+02   .61437E+02  -.86933E+01
   .11215E+02   .61619E+02  -.87339E+01
   .11215E+02   .61752E+02  -.87582E+01
   .11216E+02   .61749E+02  -.88068E+01
   .11216E+02   .61826E+02  -.88286E+01
   .11216E+02   .61786E+02  -.88721E+01
   .11216E+02   .61784E+02  -.88911E+01
   .11216E+02   .61777E+02  -.89101E+01
   .11216E+02   .61748E+02  -.89485E+01
   .11217E+02   .61699E+02  -.89829E+01
   .11217E+02   .61628E+02  -.90174E+01
   .11217E+02   .61529E+02  -.90486E+01
   .11217E+02   .61383E+02  -.90798E+01
   .11218E+02   .60768E+02  -.91335E+01
   .11218E+02   .61012E+02  -.91484E+01
   .11218E+02   .61238E+02  -.11433E+02
   .11218E+02   .61655E+02  -.91918E+01
   .11218E+02   .60465E+02  -.92195E+01
   .11219E+02   .58847E+02  -.92466E+01
   .11219E+02   .61389E+02  -.19036E+02
   .11219E+02   .63847E+02  -.92951E+01
   .11219E+02   .62714E+02  -.93122E+01
   .11219E+02   .60973E+02  -.93294E+01
   .11219E+02   .62545E+02  -.16927E+02
   .11220E+02   .63821E+02  -.93707E+01
   .11220E+02   .64271E+02  -.14281E+02
   .11220E+02   .64613E+02  -.93967E+01
   .11220E+02   .65122E+02  -.94116E+01
   .11221E+02   .63448E+02  -.94908E+01
   .11222E+02   .63111E+02  -.95590E+01
   .11223E+02   .62953E+02  -.96288E+01
   .11224E+02   .62880E+02  -.96966E+01
   .11225E+02   .62848E+02  -.97558E+01
   .11226E+02   .62842E+02  -.98149E+01
   .11227E+02   .62852E+02  -.98675E+01
   .11228E+02   .62874E+02  -.99200E+01
   .11230E+02   .62942E+02  -.10013E+02
   .11232E+02   .63032E+02  -.10094E+02
   .11233E+02   .63109E+02  -.10147E+02
   .11235E+02   .63193E+02  -.10193E+02
   .11237E+02   .63309E+02  -.10245E+02
   .11239E+02   .63429E+02  -.10285E+02
   .11241E+02   .63549E+02  -.10316E+02
   .11243E+02   .63669E+02  -.10338E+02
   .11245E+02   .63785E+02  -.10350E+02
   .11247E+02   .63897E+02  -.10354E+02
   .11248E+02   .63979E+02  -.10354E+02
   .11250E+02   .64057E+02  -.10353E+02
   .11253E+02   .64204E+02  -.10340E+02
   .11255E+02   .64296E+02  -.10328E+02
   .11258E+02   .64423E+02  -.10303E+02
   .11260E+02   .64501E+02  -.10287E+02
   .11263E+02   .64609E+02  -.10260E+02
   .11265E+02   .64670E+02  -.10242E+02
   .11267E+02   .64738E+02  -.10225E+02
   .11270E+02   .64824E+02  -.10199E+02
   .11273E+02   .64904E+02  -.10177E+02
   .11275E+02   .64953E+02  -.10162E+02
   .11280E+02   .65067E+02  -.10133E+02
   .11285E+02   .65172E+02  -.10113E+02
   .11290E+02   .65269E+02  -.10097E+02
   .11295E+02   .65362E+02  -.10088E+02
   .11300E+02   .65451E+02  -.10079E+02
   .11310E+02   .65625E+02  -.10072E+02
   .11320E+02   .65792E+02  -.10067E+02
   .11325E+02   .65874E+02  -.10062E+02
   .11330E+02   .65953E+02  -.10058E+02
   .11338E+02   .66075E+02  -.10045E+02
   .11345E+02   .66175E+02  -.10034E+02
   .11352E+02   .66270E+02  -.10020E+02
   .11360E+02   .66371E+02  -.10004E+02
   .11370E+02   .66489E+02  -.99844E+01
   .11380E+02   .66597E+02  -.99647E+01
   .11390E+02   .66698E+02  -.99494E+01
   .11400E+02   .66793E+02  -.99342E+01
   .11415E+02   .66929E+02  -.99171E+01
   .11430E+02   .67059E+02  -.99001E+01
   .11440E+02   .67142E+02  -.98866E+01
   .11450E+02   .67221E+02  -.98731E+01
   .11460E+02   .67296E+02  -.98597E+01
   .11470E+02   .67369E+02  -.98463E+01
   .11485E+02   .67472E+02  -.98262E+01
   .11500E+02   .67570E+02  -.98062E+01
   .11515E+02   .67663E+02  -.97856E+01
   .11530E+02   .67751E+02  -.97651E+01
   .11550E+02   .67861E+02  -.97377E+01
   .11580E+02   .68014E+02  -.96967E+01
   .11600E+02   .68108E+02  -.96693E+01
   .11630E+02   .68239E+02  -.96282E+01
   .11650E+02   .68320E+02  -.96008E+01
   .11670E+02   .68396E+02  -.95734E+01
   .11700E+02   .68502E+02  -.95322E+01
   .11720E+02   .68568E+02  -.95048E+01
   .11750E+02   .68660E+02  -.94637E+01
   .11780E+02   .68744E+02  -.94226E+01
   .11800E+02   .68797E+02  -.93951E+01
   .11830E+02   .68871E+02  -.93563E+01
   .11860E+02   .68938E+02  -.93175E+01
   .11890E+02   .69001E+02  -.92787E+01
   .11920E+02   .69058E+02  -.92399E+01
   .11950E+02   .69110E+02  -.92010E+01
   .11980E+02   .69157E+02  -.91622E+01
   .12010E+02   .69200E+02  -.91234E+01
   .12037E+02   .69234E+02  -.90885E+01
   .12080E+02   .69282E+02  -.90347E+01
   .12120E+02   .69317E+02  -.89847E+01
   .12160E+02   .69346E+02  -.89347E+01
   .12200E+02   .69366E+02  -.88847E+01
   .12250E+02   .69380E+02  -.88246E+01
   .12300E+02   .69382E+02  -.87646E+01
   .12320E+02   .69378E+02  -.87406E+01
   .12350E+02   .69369E+02  -.87045E+01
   .12380E+02   .69354E+02  -.86685E+01
   .12400E+02   .69341E+02  -.86445E+01
   .12430E+02   .69316E+02  -.86093E+01
   .12450E+02   .69295E+02  -.85859E+01
   .12470E+02   .69271E+02  -.85625E+01
   .12500E+02   .69228E+02  -.85273E+01
   .12530E+02   .69175E+02  -.84922E+01
   .12550E+02   .69134E+02  -.84688E+01
   .12580E+02   .69062E+02  -.84336E+01
   .12600E+02   .69006E+02  -.84102E+01
   .12615E+02   .68959E+02  -.83934E+01
   .12630E+02   .68908E+02  -.83767E+01
   .12645E+02   .68851E+02  -.83600E+01
   .12660E+02   .68787E+02  -.83432E+01
   .12675E+02   .68717E+02  -.83265E+01
   .12690E+02   .68638E+02  -.83097E+01
   .12700E+02   .68580E+02  -.82986E+01
   .12710E+02   .68516E+02  -.82874E+01
   .12720E+02   .68447E+02  -.82763E+01
   .12730E+02   .68371E+02  -.82651E+01
   .12738E+02   .68305E+02  -.82562E+01
   .12745E+02   .68242E+02  -.82484E+01
   .12753E+02   .68163E+02  -.82394E+01
   .12760E+02   .68088E+02  -.82316E+01
   .12767E+02   .68006E+02  -.82238E+01
   .12775E+02   .67901E+02  -.82149E+01
   .12783E+02   .67782E+02  -.82060E+01
   .12790E+02   .67664E+02  -.81981E+01
   .12798E+02   .67507E+02  -.81892E+01
   .12802E+02   .67418E+02  -.81848E+01
   .12805E+02   .67345E+02  -.81814E+01
   .12809E+02   .67239E+02  -.81770E+01
   .12813E+02   .67120E+02  -.81725E+01
   .12817E+02   .66985E+02  -.81680E+01
   .12820E+02   .66870E+02  -.81647E+01
   .12823E+02   .66741E+02  -.81613E+01
   .12825E+02   .66645E+02  -.81591E+01
   .12828E+02   .66483E+02  -.81558E+01
   .12830E+02   .66360E+02  -.81535E+01
   .12833E+02   .66145E+02  -.81502E+01
   .12835E+02   .65975E+02  -.81479E+01
   .12838E+02   .65663E+02  -.81446E+01
   .12840E+02   .65400E+02  -.81424E+01
   .12842E+02   .65071E+02  -.81401E+01
   .12844E+02   .64638E+02  -.81379E+01
   .12845E+02   .64205E+02  -.81362E+01
   .12847E+02   .63616E+02  -.81346E+01
   .12849E+02   .62751E+02  -.81329E+01
   .12849E+02   .62182E+02  -.81321E+01
   .12850E+02   .61308E+02  -.81312E+01
   .12851E+02   .59608E+02  -.81301E+01
   .12852E+02   .56295E+02  -.81290E+01
   .12853E+02   .48325E+02  -.81280E+01
   .12854E+02   .16475E+01  -.81271E+01
   .12854E+02   .79856E+01  -.86053E+02
   .12854E+02   .36810E+02  -.16398E+03
   .12854E+02   .65623E+02  -.24191E+03
   .12854E+02   .12960E+03  -.81265E+01
   .12855E+02   .86807E+02  -.81258E+01
   .12855E+02   .81414E+02  -.81255E+01
   .12856E+02   .77330E+02  -.81251E+01
   .12856E+02   .75367E+02  -.81248E+01
   .12856E+02   .73510E+02  -.81243E+01
   .12857E+02   .72464E+02  -.81240E+01
   .12857E+02   .71357E+02  -.81235E+01
   .12857E+02   .70670E+02  -.81232E+01
   .12858E+02   .70260E+02  -.81230E+01
   .12858E+02   .69879E+02  -.81228E+01
   .12858E+02   .69519E+02  -.81226E+01
   .12858E+02   .69172E+02  -.81223E+01
   .12858E+02   .68972E+02  -.81222E+01
   .12858E+02   .68663E+02  -.81220E+01
   .12858E+02   .68491E+02  -.81219E+01
   .12859E+02   .68315E+02  -.81218E+01
   .12859E+02   .67888E+02  -.81215E+01
   .12859E+02   .67121E+02  -.81213E+01
   .12859E+02   .66622E+02  -.83032E+01
   .12859E+02   .66253E+02  -.88724E+01
   .12859E+02   .66156E+02  -.92747E+01
   .12860E+02   .66225E+02  -.96952E+01
   .12860E+02   .66430E+02  -.10142E+02
   .12860E+02   .66649E+02  -.10168E+02
   .12860E+02   .66845E+02  -.10194E+02
   .12860E+02   .66873E+02  -.10219E+02
   .12860E+02   .66931E+02  -.10236E+02
   .12861E+02   .66922E+02  -.10269E+02
   .12861E+02   .66906E+02  -.10298E+02
   .12861E+02   .66930E+02  -.10313E+02
   .12861E+02   .66925E+02  -.10343E+02
   .12861E+02   .66906E+02  -.10381E+02
   .12862E+02   .66877E+02  -.10418E+02
   .12862E+02   .66842E+02  -.10451E+02
   .12862E+02   .66800E+02  -.10484E+02
   .12863E+02   .66748E+02  -.10513E+02
   .12863E+02   .66683E+02  -.10542E+02
   .12863E+02   .66436E+02  -.10597E+02
   .12864E+02   .66432E+02  -.10607E+02
   .12864E+02   .66460E+02  -.11193E+02
   .12864E+02   .66391E+02  -.10639E+02
   .12864E+02   .66036E+02  -.10654E+02
   .12864E+02   .65695E+02  -.10667E+02
   .12865E+02   .66555E+02  -.14526E+02
   .12865E+02   .67504E+02  -.10704E+02
   .12865E+02   .66734E+02  -.10716E+02
   .12865E+02   .66331E+02  -.10727E+02
   .12866E+02   .67234E+02  -.14803E+02
   .12866E+02   .68060E+02  -.10755E+02
   .12866E+02   .68195E+02  -.10759E+02
   .12866E+02   .68022E+02  -.11636E+02
   .12866E+02   .67936E+02  -.10786E+02
   .12867E+02   .67381E+02  -.10833E+02
   .12868E+02   .67244E+02  -.10880E+02
   .12869E+02   .67179E+02  -.10923E+02
   .12870E+02   .67150E+02  -.10966E+02
   .12872E+02   .67139E+02  -.11024E+02
   .12873E+02   .67149E+02  -.11075E+02
   .12875E+02   .67183E+02  -.11134E+02
   .12877E+02   .67230E+02  -.11183E+02
   .12878E+02   .67270E+02  -.11213E+02
   .12880E+02   .67315E+02  -.11239E+02
   .12883E+02   .67408E+02  -.11281E+02
   .12885E+02   .67471E+02  -.11298E+02
   .12888E+02   .67565E+02  -.11315E+02
   .12890E+02   .67625E+02  -.11323E+02
   .12893E+02   .67711E+02  -.11323E+02
   .12895E+02   .67766E+02  -.11320E+02
   .12898E+02   .67841E+02  -.11309E+02
   .12900E+02   .67888E+02  -.11303E+02
   .12902E+02   .67931E+02  -.11293E+02
   .12904E+02   .67972E+02  -.11284E+02
   .12908E+02   .68046E+02  -.11264E+02
   .12912E+02   .68111E+02  -.11245E+02
   .12915E+02   .68155E+02  -.11230E+02
   .12919E+02   .68208E+02  -.11215E+02
   .12923E+02   .68256E+02  -.11199E+02
   .12926E+02   .68291E+02  -.11191E+02
   .12930E+02   .68333E+02  -.11179E+02
   .12938E+02   .68412E+02  -.11165E+02
   .12945E+02   .68479E+02  -.11156E+02
   .12953E+02   .68552E+02  -.11148E+02
   .12960E+02   .68614E+02  -.11141E+02
   .12970E+02   .68700E+02  -.11127E+02
   .12980E+02   .68781E+02  -.11113E+02
   .12990E+02   .68856E+02  -.11099E+02
   .13000E+02   .68924E+02  -.11085E+02
   .13008E+02   .68975E+02  -.11074E+02
   .13015E+02   .69016E+02  -.11064E+02
   .13030E+02   .69098E+02  -.11042E+02
   .13050E+02   .69193E+02  -.11014E+02
   .13070E+02   .69279E+02  -.10985E+02
   .13085E+02   .69339E+02  -.10965E+02
   .13100E+02   .69394E+02  -.10946E+02
   .13116E+02   .69449E+02  -.10925E+02
   .13131E+02   .69494E+02  -.10906E+02
   .13150E+02   .69544E+02  -.10881E+02
   .13170E+02   .69589E+02  -.10854E+02
   .13185E+02   .69617E+02  -.10834E+02
   .13200E+02   .69640E+02  -.10814E+02
   .13215E+02   .69658E+02  -.10794E+02
   .13230E+02   .69671E+02  -.10774E+02
   .13245E+02   .69678E+02  -.10754E+02
   .13260E+02   .69678E+02  -.10734E+02
   .13275E+02   .69670E+02  -.10714E+02
   .13283E+02   .69662E+02  -.10703E+02
   .13290E+02   .69652E+02  -.10694E+02
   .13300E+02   .69633E+02  -.10681E+02
   .13310E+02   .69608E+02  -.10668E+02
   .13320E+02   .69575E+02  -.10654E+02
   .13330E+02   .69533E+02  -.10641E+02
   .13338E+02   .69489E+02  -.10630E+02
   .13345E+02   .69442E+02  -.10621E+02
   .13352E+02   .69385E+02  -.10612E+02
   .13356E+02   .69346E+02  -.10606E+02
   .13360E+02   .69302E+02  -.10601E+02
   .13365E+02   .69238E+02  -.10595E+02
   .13370E+02   .69159E+02  -.10588E+02
   .13373E+02   .69104E+02  -.10584E+02
   .13375E+02   .69062E+02  -.10581E+02
   .13378E+02   .68991E+02  -.10577E+02
   .13380E+02   .68937E+02  -.10575E+02
   .13382E+02   .68875E+02  -.10572E+02
   .13384E+02   .68804E+02  -.10569E+02
   .13386E+02   .68723E+02  -.10567E+02
   .13388E+02   .68626E+02  -.10564E+02
   .13390E+02   .68508E+02  -.10561E+02
   .13391E+02   .68438E+02  -.10560E+02
   .13392E+02   .68359E+02  -.10559E+02
   .13393E+02   .68264E+02  -.10557E+02
   .13394E+02   .68149E+02  -.10556E+02
   .13395E+02   .67993E+02  -.10555E+02
   .13396E+02   .67576E+02  -.10553E+02
   .13396E+02   .67615E+02  -.10937E+02
   .13396E+02   .67733E+02  -.11320E+02
   .13396E+02   .67845E+02  -.11703E+02
   .13397E+02   .68100E+02  -.10553E+02
   .13397E+02   .67765E+02  -.10552E+02
   .13397E+02   .67351E+02  -.10552E+02
   .13398E+02   .67776E+02  -.12306E+02
   .13398E+02   .68205E+02  -.10551E+02
   .13398E+02   .67948E+02  -.10550E+02
   .13399E+02   .67754E+02  -.10550E+02
   .13399E+02   .67658E+02  -.10550E+02
   .13399E+02   .67526E+02  -.10550E+02
   .13399E+02   .67450E+02  -.10549E+02
   .13399E+02   .67324E+02  -.10549E+02
   .13400E+02   .67190E+02  -.10549E+02
   .13400E+02   .67092E+02  -.10548E+02
   .13400E+02   .67024E+02  -.10548E+02
   .13400E+02   .66928E+02  -.10548E+02
   .13400E+02   .66847E+02  -.10548E+02
   .13401E+02   .66735E+02  -.10547E+02
   .13401E+02   .66634E+02  -.10547E+02
   .13401E+02   .66492E+02  -.10547E+02
   .13401E+02   .66364E+02  -.10547E+02
   .13401E+02   .66189E+02  -.10547E+02
   .13401E+02   .65712E+02  -.10546E+02
   .13402E+02   .65280E+02  -.10872E+02
   .13402E+02   .65050E+02  -.11552E+02
   .13402E+02   .65218E+02  -.12095E+02
   .13402E+02   .65395E+02  -.12280E+02
   .13402E+02   .65552E+02  -.12280E+02
   .13402E+02   .65689E+02  -.12279E+02
   .13402E+02   .65770E+02  -.12278E+02
   .13403E+02   .65741E+02  -.12277E+02
   .13403E+02   .65723E+02  -.12277E+02
   .13403E+02   .65691E+02  -.12276E+02
   .13403E+02   .65580E+02  -.12275E+02
   .13403E+02   .65397E+02  -.12274E+02
   .13403E+02   .65122E+02  -.12273E+02
   .13403E+02   .64953E+02  -.12272E+02
   .13404E+02   .64428E+02  -.12271E+02
   .13404E+02   .63008E+02  -.12269E+02
   .13404E+02   .57647E+02  -.12267E+02
   .13405E+02   .61752E+02  -.12267E+02
   .13405E+02   .65855E+02  -.46884E+02
   .13405E+02   .78121E+02  -.12264E+02
   .13405E+02   .72094E+02  -.12262E+02
   .13406E+02   .70243E+02  -.12259E+02
   .13406E+02   .68840E+02  -.12257E+02
   .13407E+02   .66964E+02  -.12255E+02
   .13407E+02   .69471E+02  -.20376E+02
   .13407E+02   .71063E+02  -.12252E+02
   .13407E+02   .69682E+02  -.12251E+02
   .13407E+02   .68902E+02  -.12250E+02
   .13408E+02   .70313E+02  -.18049E+02
   .13408E+02   .71278E+02  -.12247E+02
   .13408E+02   .70937E+02  -.13896E+02
   .13408E+02   .70988E+02  -.12244E+02
   .13410E+02   .69905E+02  -.12237E+02
   .13411E+02   .69658E+02  -.12229E+02
   .13413E+02   .69547E+02  -.12220E+02
   .13414E+02   .69504E+02  -.12212E+02
   .13415E+02   .69490E+02  -.12203E+02
   .13417E+02   .69492E+02  -.12194E+02
   .13418E+02   .69498E+02  -.12189E+02
   .13419E+02   .69505E+02  -.12183E+02
   .13422E+02   .69537E+02  -.12166E+02
   .13424E+02   .69559E+02  -.12155E+02
   .13427E+02   .69595E+02  -.12142E+02
   .13430E+02   .69631E+02  -.12130E+02
   .13432E+02   .69653E+02  -.12125E+02
   .13435E+02   .69687E+02  -.12117E+02
   .13440E+02   .69741E+02  -.12109E+02
   .13445E+02   .69794E+02  -.12105E+02
   .13450E+02   .69846E+02  -.12101E+02
   .13455E+02   .69896E+02  -.12099E+02
   .13460E+02   .69946E+02  -.12097E+02
   .13465E+02   .69994E+02  -.12095E+02
   .13470E+02   .70043E+02  -.12093E+02
   .13477E+02   .70108E+02  -.12085E+02
   .13485E+02   .70177E+02  -.12077E+02
   .13493E+02   .70242E+02  -.12068E+02
   .13500E+02   .70297E+02  -.12061E+02
   .13510E+02   .70372E+02  -.12045E+02
   .13520E+02   .70440E+02  -.12030E+02
   .13535E+02   .70535E+02  -.12009E+02
   .13550E+02   .70622E+02  -.11988E+02
   .13560E+02   .70678E+02  -.11975E+02
   .13570E+02   .70731E+02  -.11963E+02
   .13585E+02   .70809E+02  -.11944E+02
   .13600E+02   .70884E+02  -.11926E+02
   .13615E+02   .70956E+02  -.11906E+02
   .13630E+02   .71024E+02  -.11886E+02
   .13650E+02   .71111E+02  -.11859E+02
   .13670E+02   .71194E+02  -.11833E+02
   .13700E+02   .71310E+02  -.11792E+02
   .13720E+02   .71384E+02  -.11767E+02
   .13750E+02   .71490E+02  -.11729E+02
   .13780E+02   .71590E+02  -.11690E+02
   .13800E+02   .71655E+02  -.11665E+02
   .13820E+02   .71718E+02  -.11640E+02
   .13850E+02   .71809E+02  -.11602E+02
   .13870E+02   .71867E+02  -.11577E+02
   .13900E+02   .71952E+02  -.11540E+02
   .13950E+02   .72087E+02  -.11477E+02
   .14000E+02   .72216E+02  -.11415E+02
   .14050E+02   .72338E+02  -.11353E+02
   .14100E+02   .72453E+02  -.11291E+02
   .14150E+02   .72562E+02  -.11229E+02
   .14200E+02   .72666E+02  -.11167E+02
   .14250E+02   .72766E+02  -.11107E+02
   .14300E+02   .72862E+02  -.11047E+02
   .14350E+02   .72953E+02  -.10988E+02
   .14400E+02   .73042E+02  -.10928E+02
   .14450E+02   .73127E+02  -.10870E+02
   .14500E+02   .73210E+02  -.10813E+02
   .14550E+02   .73289E+02  -.10755E+02
   .14600E+02   .73366E+02  -.10698E+02
   .14650E+02   .73440E+02  -.10642E+02
   .14700E+02   .73512E+02  -.10586E+02
   .14750E+02   .73582E+02  -.10530E+02
   .14800E+02   .73650E+02  -.10474E+02
   .14850E+02   .73715E+02  -.10421E+02
   .14900E+02   .73779E+02  -.10367E+02
   .14950E+02   .73841E+02  -.10313E+02
   .15000E+02   .73902E+02  -.10259E+02
   .15070E+02   .73984E+02  -.10185E+02
   .15150E+02   .74074E+02  -.10101E+02
   .15220E+02   .74149E+02  -.10028E+02
   .15300E+02   .74231E+02  -.99434E+01
   .15380E+02   .74310E+02  -.98635E+01
   .15450E+02   .74376E+02  -.97935E+01
   .15530E+02   .74449E+02  -.97136E+01
   .15600E+02   .74511E+02  -.96436E+01
   .15680E+02   .74578E+02  -.95675E+01
   .15750E+02   .74635E+02  -.95010E+01
   .15830E+02   .74699E+02  -.94249E+01
   .15900E+02   .74752E+02  -.93583E+01
   .15970E+02   .74804E+02  -.92949E+01
   .16010E+02   .74832E+02  -.92587E+01
   .16050E+02   .74862E+02  -.92225E+01
   .16090E+02   .74888E+02  -.91863E+01
   .16130E+02   .74916E+02  -.91501E+01
   .16200E+02   .74963E+02  -.90867E+01
   .16280E+02   .75014E+02  -.90176E+01
   .16350E+02   .75058E+02  -.89572E+01
   .16430E+02   .75107E+02  -.88881E+01
   .16500E+02   .75149E+02  -.88276E+01
   .16570E+02   .75189E+02  -.87693E+01
   .16650E+02   .75234E+02  -.87026E+01
   .16730E+02   .75276E+02  -.86359E+01
   .16800E+02   .75313E+02  -.85775E+01
   .16880E+02   .75353E+02  -.85138E+01
   .16950E+02   .75387E+02  -.84581E+01
   .17020E+02   .75420E+02  -.84024E+01
   .17100E+02   .75457E+02  -.83387E+01
   .17200E+02   .75501E+02  -.82631E+01
   .17300E+02   .75544E+02  -.81875E+01
   .17390E+02   .75581E+02  -.81195E+01
   .17479E+02   .75616E+02  -.80522E+01
   .17540E+02   .75640E+02  -.80084E+01
   .17600E+02   .75663E+02  -.79653E+01
   .17700E+02   .75699E+02  -.78936E+01
   .17800E+02   .75735E+02  -.78218E+01
   .17880E+02   .75762E+02  -.77666E+01
   .17950E+02   .75786E+02  -.77183E+01
   .18020E+02   .75809E+02  -.76701E+01
   .18100E+02   .75835E+02  -.76149E+01
   .18180E+02   .75859E+02  -.75615E+01
   .18250E+02   .75880E+02  -.75147E+01
   .18320E+02   .75901E+02  -.74679E+01
   .18400E+02   .75923E+02  -.74145E+01
   .18470E+02   .75942E+02  -.73697E+01
   .18550E+02   .75963E+02  -.73185E+01
   .18630E+02   .75984E+02  -.72674E+01
   .18700E+02   .76001E+02  -.72226E+01
   .18750E+02   .76013E+02  -.71921E+01
   .18800E+02   .76025E+02  -.71616E+01
   .18850E+02   .76037E+02  -.71312E+01
   .18900E+02   .76048E+02  -.71007E+01
   .18950E+02   .76060E+02  -.70702E+01
   .19000E+02   .76071E+02  -.70398E+01
   .19050E+02   .76081E+02  -.70093E+01
   .19100E+02   .76092E+02  -.69788E+01
   .19180E+02   .76109E+02  -.69324E+01
   .19250E+02   .76123E+02  -.68917E+01
   .19320E+02   .76136E+02  -.68511E+01
   .19400E+02   .76152E+02  -.68046E+01
   .19470E+02   .76165E+02  -.67656E+01
   .19550E+02   .76179E+02  -.67210E+01
   .19630E+02   .76193E+02  -.66764E+01
   .19700E+02   .76206E+02  -.66373E+01
   .19780E+02   .76219E+02  -.65945E+01
   .19850E+02   .76230E+02  -.65570E+01
   .19930E+02   .76243E+02  -.65141E+01
   .20000E+02   .76254E+02  -.64766E+01
   .20070E+02   .76265E+02  -.64401E+01
   .20150E+02   .76277E+02  -.63983E+01
   .20230E+02   .76288E+02  -.63566E+01
   .20300E+02   .76298E+02  -.63201E+01
   .20380E+02   .76309E+02  -.62799E+01
   .20450E+02   .76317E+02  -.62448E+01
   .20520E+02   .76326E+02  -.62097E+01
   .20600E+02   .76336E+02  -.61695E+01
   .20680E+02   .76345E+02  -.61309E+01
   .20750E+02   .76353E+02  -.60971E+01
   .20820E+02   .76361E+02  -.60633E+01
   .20900E+02   .76369E+02  -.60247E+01
   .21000E+02   .76380E+02  -.59779E+01
   .21100E+02   .76390E+02  -.59312E+01
   .21250E+02   .76404E+02  -.58632E+01
   .21400E+02   .76417E+02  -.57952E+01
   .21500E+02   .76425E+02  -.57512E+01
   .21600E+02   .76433E+02  -.57073E+01
   .21750E+02   .76444E+02  -.56433E+01
   .21900E+02   .76455E+02  -.55794E+01
   .22030E+02   .76464E+02  -.55258E+01
   .22163E+02   .76472E+02  -.54710E+01
   .22300E+02   .76480E+02  -.54165E+01
   .22500E+02   .76491E+02  -.53370E+01
   .22700E+02   .76501E+02  -.52609E+01
   .22900E+02   .76510E+02  -.51847E+01
   .23100E+02   .76519E+02  -.51116E+01
   .23300E+02   .76526E+02  -.50385E+01
   .23450E+02   .76531E+02  -.49857E+01
   .23600E+02   .76536E+02  -.49329E+01
   .23800E+02   .76541E+02  -.48653E+01
   .24000E+02   .76546E+02  -.47976E+01
   .24150E+02   .76549E+02  -.47488E+01
   .24300E+02   .76552E+02  -.47000E+01
   .24500E+02   .76555E+02  -.46373E+01
   .24700E+02   .76558E+02  -.45746E+01
   .25000E+02   .76561E+02  -.44841E+01
   .25150E+02   .76563E+02  -.44398E+01
   .25300E+02   .76564E+02  -.43954E+01
   .25450E+02   .76564E+02  -.43524E+01
   .25600E+02   .76564E+02  -.43095E+01
   .25900E+02   .76564E+02  -.42262E+01
   .26200E+02   .76563E+02  -.41454E+01
   .26500E+02   .76561E+02  -.40671E+01
   .26800E+02   .76558E+02  -.39911E+01
   .27100E+02   .76555E+02  -.39174E+01
   .27470E+02   .76550E+02  -.38294E+01
   .27800E+02   .76545E+02  -.37535E+01
   .28100E+02   .76540E+02  -.36864E+01
   .28400E+02   .76535E+02  -.36207E+01
   .28700E+02   .76529E+02  -.35568E+01
   .29100E+02   .76520E+02  -.34743E+01
   .29400E+02   .76513E+02  -.34145E+01
   .29700E+02   .76505E+02  -.33563E+01
   .30000E+02   .76497E+02  -.32996E+01
   .30400E+02   .76487E+02  -.32261E+01
   .30800E+02   .76475E+02  -.31551E+01
   .31200E+02   .76464E+02  -.30867E+01
   .31500E+02   .76454E+02  -.30368E+01
   .31900E+02   .76442E+02  -.29723E+01
   .32300E+02   .76429E+02  -.29100E+01
   .32600E+02   .76420E+02  -.28646E+01
   .33000E+02   .76407E+02  -.28058E+01
   .33400E+02   .76394E+02  -.27483E+01
   .33800E+02   .76381E+02  -.26927E+01
   .34100E+02   .76371E+02  -.26522E+01
   .34500E+02   .76357E+02  -.25996E+01
   .34900E+02   .76343E+02  -.25487E+01
   .35300E+02   .76329E+02  -.24992E+01
   .35700E+02   .76315E+02  -.24511E+01
   .36030E+02   .76303E+02  -.24125E+01
   .36500E+02   .76287E+02  -.23592E+01
   .37000E+02   .76269E+02  -.23045E+01
   .37500E+02   .76251E+02  -.22517E+01
   .38000E+02   .76233E+02  -.22009E+01
   .38500E+02   .76215E+02  -.21518E+01
   .39000E+02   .76197E+02  -.21044E+01
   .39500E+02   .76179E+02  -.20586E+01
   .40000E+02   .76161E+02  -.20143E+01
   .40500E+02   .76143E+02  -.19713E+01
   .41000E+02   .76124E+02  -.19297E+01
   .41500E+02   .76106E+02  -.18894E+01
   .42000E+02   .76088E+02  -.18505E+01
   .42700E+02   .76063E+02  -.17981E+01
   .43400E+02   .76038E+02  -.17479E+01
   .44100E+02   .76012E+02  -.17000E+01
   .44877E+02   .75984E+02  -.16491E+01
   .45100E+02   .75976E+02  -.16349E+01
   .45400E+02   .75965E+02  -.16161E+01
   .45700E+02   .75954E+02  -.15976E+01
   .46000E+02   .75944E+02  -.15795E+01
   .46500E+02   .75926E+02  -.15499E+01
   .47000E+02   .75907E+02  -.15213E+01
   .47500E+02   .75889E+02  -.14934E+01
   .48000E+02   .75871E+02  -.14663E+01
   .48500E+02   .75853E+02  -.14400E+01
   .49000E+02   .75835E+02  -.14145E+01
   .49500E+02   .75817E+02  -.13896E+01
   .50000E+02   .75798E+02  -.13654E+01
   .51000E+02   .75762E+02  -.13186E+01
   .52000E+02   .75724E+02  -.12742E+01
   .53000E+02   .75686E+02  -.12321E+01
   .54000E+02   .75648E+02  -.11921E+01
   .55000E+02   .75609E+02  -.11542E+01
   .56000E+02   .75568E+02  -.11180E+01
   .56800E+02   .75536E+02  -.10903E+01
   .57530E+02   .75505E+02  -.10660E+01
   .58000E+02   .75485E+02  -.10507E+01
   .58500E+02   .75463E+02  -.10349E+01
   .59540E+02   .75416E+02  -.10032E+01
   .59800E+02   .75405E+02  -.99549E+00
   .60000E+02   .75395E+02  -.98963E+00
   .60800E+02   .75357E+02  -.96662E+00
   .61500E+02   .75323E+02  -.94718E+00
   .62300E+02   .75282E+02  -.92569E+00
   .62600E+02   .75266E+02  -.91789E+00
   .63000E+02   .75244E+02  -.90750E+00
   .63500E+02   .75216E+02  -.89499E+00
   .64000E+02   .75188E+02  -.88248E+00
   .64500E+02   .75158E+02  -.87050E+00
   .65000E+02   .75127E+02  -.85852E+00
   .65500E+02   .75095E+02  -.84701E+00
   .65900E+02   .75068E+02  -.83781E+00
   .66400E+02   .75033E+02  -.82674E+00
   .66830E+02   .75002E+02  -.81722E+00
   .67100E+02   .74981E+02  -.81142E+00
   .67400E+02   .74958E+02  -.80499E+00
   .67700E+02   .74934E+02  -.79870E+00
   .68000E+02   .74909E+02  -.79242E+00
   .68500E+02   .74866E+02  -.78228E+00
   .68800E+02   .74838E+02  -.77620E+00
   .69000E+02   .74819E+02  -.77214E+00
   .69300E+02   .74790E+02  -.76630E+00
   .69500E+02   .74769E+02  -.76240E+00
   .69800E+02   .74738E+02  -.75656E+00
   .70000E+02   .74716E+02  -.75266E+00
   .70300E+02   .74681E+02  -.74703E+00
   .70500E+02   .74658E+02  -.74328E+00
   .70800E+02   .74620E+02  -.73764E+00
   .71000E+02   .74594E+02  -.73389E+00
   .71300E+02   .74553E+02  -.72847E+00
   .71500E+02   .74524E+02  -.72486E+00
   .71800E+02   .74478E+02  -.71944E+00
   .72000E+02   .74446E+02  -.71583E+00
   .72200E+02   .74412E+02  -.71234E+00
   .72400E+02   .74376E+02  -.70886E+00
   .72600E+02   .74338E+02  -.70537E+00
   .72800E+02   .74299E+02  -.70188E+00
   .73000E+02   .74256E+02  -.69849E+00
   .73200E+02   .74211E+02  -.69510E+00
   .73350E+02   .74176E+02  -.69256E+00
   .73500E+02   .74138E+02  -.69002E+00
   .73700E+02   .74084E+02  -.68672E+00
   .73900E+02   .74026E+02  -.68342E+00
   .74050E+02   .73979E+02  -.68094E+00
   .74130E+02   .73953E+02  -.67962E+00
   .74200E+02   .73929E+02  -.67847E+00
   .74300E+02   .73893E+02  -.67686E+00
   .74400E+02   .73855E+02  -.67526E+00
   .74500E+02   .73816E+02  -.67365E+00
   .74600E+02   .73774E+02  -.67205E+00
   .74700E+02   .73729E+02  -.67044E+00
   .74800E+02   .73682E+02  -.66883E+00
   .74880E+02   .73642E+02  -.66755E+00
   .74960E+02   .73599E+02  -.66627E+00
   .74990E+02   .73582E+02  -.66579E+00
   .75030E+02   .73560E+02  -.66517E+00
   .75100E+02   .73518E+02  -.66406E+00
   .75150E+02   .73486E+02  -.66328E+00
   .75200E+02   .73454E+02  -.66249E+00
   .75250E+02   .73419E+02  -.66170E+00
   .75300E+02   .73383E+02  -.66092E+00
   .75350E+02   .73346E+02  -.66014E+00
   .75400E+02   .73306E+02  -.65936E+00
   .75450E+02   .73264E+02  -.65859E+00
   .75500E+02   .73219E+02  -.65781E+00
   .75550E+02   .73172E+02  -.65704E+00
   .75600E+02   .73121E+02  -.65626E+00
   .75650E+02   .73067E+02  -.65549E+00
   .75700E+02   .73009E+02  -.65471E+00
   .75740E+02   .72959E+02  -.65410E+00
   .75780E+02   .72905E+02  -.65349E+00
   .75810E+02   .72862E+02  -.65303E+00
   .75850E+02   .72801E+02  -.65243E+00
   .75880E+02   .72752E+02  -.65197E+00
   .75920E+02   .72681E+02  -.65136E+00
   .75940E+02   .72643E+02  -.65106E+00
   .75960E+02   .72603E+02  -.65075E+00
   .75980E+02   .72561E+02  -.65045E+00
   .76000E+02   .72516E+02  -.65014E+00
   .76020E+02   .72469E+02  -.64984E+00
   .76050E+02   .72392E+02  -.64938E+00
   .76070E+02   .72336E+02  -.64908E+00
   .76085E+02   .72291E+02  -.64885E+00
   .76100E+02   .72244E+02  -.64862E+00
   .76115E+02   .72194E+02  -.64839E+00
   .76130E+02   .72140E+02  -.64816E+00
   .76140E+02   .72102E+02  -.64801E+00
   .76150E+02   .72062E+02  -.64786E+00
   .76165E+02   .71998E+02  -.64763E+00
   .76180E+02   .71929E+02  -.64740E+00
   .76190E+02   .71879E+02  -.64725E+00
   .76200E+02   .71825E+02  -.64710E+00
   .76210E+02   .71768E+02  -.64695E+00
   .76220E+02   .71706E+02  -.64679E+00
   .76230E+02   .71640E+02  -.64664E+00
   .76240E+02   .71567E+02  -.64649E+00
   .76248E+02   .71504E+02  -.64637E+00
   .76255E+02   .71444E+02  -.64626E+00
   .76263E+02   .71369E+02  -.64614E+00
   .76270E+02   .71298E+02  -.64603E+00
   .76275E+02   .71243E+02  -.64596E+00
   .76280E+02   .71184E+02  -.64588E+00
   .76285E+02   .71120E+02  -.64580E+00
   .76290E+02   .71051E+02  -.64573E+00
   .76295E+02   .70976E+02  -.64565E+00
   .76300E+02   .70893E+02  -.64558E+00
   .76305E+02   .70801E+02  -.64550E+00
   .76310E+02   .70697E+02  -.64542E+00
   .76313E+02   .70628E+02  -.64538E+00
   .76315E+02   .70578E+02  -.64535E+00
   .76318E+02   .70498E+02  -.64530E+00
   .76320E+02   .70439E+02  -.64527E+00
   .76323E+02   .70344E+02  -.64523E+00
   .76325E+02   .70274E+02  -.64520E+00
   .76328E+02   .70157E+02  -.64515E+00
   .76330E+02   .70068E+02  -.64512E+00
   .76332E+02   .69971E+02  -.64509E+00
   .76334E+02   .69860E+02  -.64506E+00
   .76336E+02   .69734E+02  -.64503E+00
   .76337E+02   .69664E+02  -.64501E+00
   .76338E+02   .69588E+02  -.64500E+00
   .76339E+02   .69505E+02  -.64498E+00
   .76340E+02   .69412E+02  -.64497E+00
   .76341E+02   .69310E+02  -.64495E+00
   .76342E+02   .69194E+02  -.64494E+00
   .76343E+02   .69060E+02  -.64492E+00
   .76344E+02   .68898E+02  -.64491E+00
   .76345E+02   .68737E+02  -.64489E+00
   .76345E+02   .68541E+02  -.64488E+00
   .76346E+02   .68530E+02  -.69498E+00
   .76346E+02   .68531E+02  -.74509E+00
   .76346E+02   .68528E+02  -.84529E+00
   .76346E+02   .68519E+02  -.10457E+01
   .76347E+02   .68486E+02  -.14465E+01
   .76349E+02   .68323E+02  -.64484E+00
   .76350E+02   .67682E+02  -.64482E+00
   .76351E+02   .66804E+02  -.64480E+00
   .76352E+02   .65442E+02  -.11328E+01
   .76354E+02   .63643E+02  -.21214E+01
   .76354E+02   .65593E+02  -.31487E+01
   .76355E+02   .67776E+02  -.14812E+02
   .76356E+02   .70671E+02  -.33131E+01
   .76356E+02   .71534E+02  -.33131E+01
   .76357E+02   .72069E+02  -.33131E+01
   .76358E+02   .71155E+02  -.48092E+01
   .76359E+02   .71113E+02  -.33044E+01
   .76360E+02   .70848E+02  -.32985E+01
   .76361E+02   .70697E+02  -.32918E+01
   .76362E+02   .70612E+02  -.32844E+01
   .76363E+02   .70572E+02  -.32770E+01
   .76364E+02   .70554E+02  -.32685E+01
   .76365E+02   .70551E+02  -.32601E+01
   .76366E+02   .70555E+02  -.32516E+01
   .76367E+02   .70566E+02  -.32431E+01
   .76368E+02   .70580E+02  -.32355E+01
   .76369E+02   .70597E+02  -.32279E+01
   .76370E+02   .70614E+02  -.32203E+01
   .76371E+02   .70632E+02  -.32127E+01
   .76373E+02   .70670E+02  -.32000E+01
   .76375E+02   .70706E+02  -.31873E+01
   .76377E+02   .70741E+02  -.31787E+01
   .76379E+02   .70776E+02  -.31701E+01
   .76381E+02   .70800E+02  -.31655E+01
   .76382E+02   .70824E+02  -.31610E+01
   .76384E+02   .70855E+02  -.31569E+01
   .76386E+02   .70883E+02  -.31528E+01
   .76388E+02   .70912E+02  -.31509E+01
   .76390E+02   .70939E+02  -.31490E+01
   .76395E+02   .71004E+02  -.31500E+01
   .76400E+02   .71066E+02  -.31546E+01
   .76405E+02   .71125E+02  -.31613E+01
   .76410E+02   .71183E+02  -.31689E+01
   .76415E+02   .71239E+02  -.31762E+01
   .76420E+02   .71294E+02  -.31834E+01
   .76425E+02   .71347E+02  -.31881E+01
   .76430E+02   .71399E+02  -.31929E+01
   .76435E+02   .71448E+02  -.31949E+01
   .76440E+02   .71495E+02  -.31969E+01
   .76445E+02   .71540E+02  -.31969E+01
   .76450E+02   .71582E+02  -.31969E+01
   .76455E+02   .71622E+02  -.31952E+01
   .76460E+02   .71660E+02  -.31935E+01
   .76470E+02   .71729E+02  -.31901E+01
   .76478E+02   .71779E+02  -.31881E+01
   .76485E+02   .71819E+02  -.31863E+01
   .76493E+02   .71864E+02  -.31858E+01
   .76500E+02   .71901E+02  -.31853E+01
   .76510E+02   .71950E+02  -.31857E+01
   .76520E+02   .71997E+02  -.31860E+01
   .76535E+02   .72065E+02  -.31872E+01
   .76550E+02   .72129E+02  -.31885E+01
   .76560E+02   .72169E+02  -.31885E+01
   .76570E+02   .72208E+02  -.31885E+01
   .76585E+02   .72263E+02  -.31864E+01
   .76600E+02   .72313E+02  -.31843E+01
   .76615E+02   .72360E+02  -.31835E+01
   .76630E+02   .72405E+02  -.31827E+01
   .76650E+02   .72461E+02  -.31817E+01
   .76680E+02   .72539E+02  -.31801E+01
   .76700E+02   .72588E+02  -.31791E+01
   .76730E+02   .72656E+02  -.31772E+01
   .76750E+02   .72699E+02  -.31760E+01
   .76770E+02   .72739E+02  -.31747E+01
   .76800E+02   .72796E+02  -.31728E+01
   .76820E+02   .72833E+02  -.31713E+01
   .76850E+02   .72884E+02  -.31691E+01
   .76880E+02   .72933E+02  -.31669E+01
   .76900E+02   .72964E+02  -.31654E+01
   .76920E+02   .72993E+02  -.31640E+01
   .76950E+02   .73036E+02  -.31619E+01
   .76980E+02   .73077E+02  -.31599E+01
   .77010E+02   .73116E+02  -.31578E+01
   .77030E+02   .73140E+02  -.31564E+01
   .77060E+02   .73178E+02  -.31544E+01
   .77080E+02   .73200E+02  -.31530E+01
   .77110E+02   .73233E+02  -.31509E+01
   .77160E+02   .73286E+02  -.31478E+01
   .77210E+02   .73336E+02  -.31447E+01
   .77260E+02   .73384E+02  -.31416E+01
   .77300E+02   .73420E+02  -.31391E+01
   .77350E+02   .73464E+02  -.31359E+01
   .77400E+02   .73506E+02  -.31328E+01
   .77450E+02   .73546E+02  -.31297E+01
   .77500E+02   .73584E+02  -.31266E+01
   .77550E+02   .73621E+02  -.31234E+01
   .77600E+02   .73657E+02  -.31203E+01
   .77700E+02   .73724E+02  -.31141E+01
   .77800E+02   .73785E+02  -.31078E+01
   .77900E+02   .73843E+02  -.31016E+01
   .78000E+02   .73896E+02  -.30956E+01
   .78100E+02   .73945E+02  -.30897E+01
   .78200E+02   .73992E+02  -.30837E+01
   .78300E+02   .74037E+02  -.30778E+01
   .78380E+02   .74071E+02  -.30730E+01
   .78450E+02   .74100E+02  -.30689E+01
   .78600E+02   .74159E+02  -.30599E+01
   .78700E+02   .74197E+02  -.30549E+01
   .78800E+02   .74233E+02  -.30499E+01
   .78900E+02   .74269E+02  -.30449E+01
   .79000E+02   .74303E+02  -.30399E+01
   .79150E+02   .74352E+02  -.30313E+01
   .79300E+02   .74399E+02  -.30227E+01
   .79500E+02   .74458E+02  -.30105E+01
   .79700E+02   .74513E+02  -.29983E+01
   .79850E+02   .74552E+02  -.29886E+01
   .79920E+02   .74569E+02  -.29840E+01
   .80000E+02   .74588E+02  -.29789E+01
   .80200E+02   .74635E+02  -.29674E+01
   .80400E+02   .74679E+02  -.29559E+01
   .80600E+02   .74721E+02  -.29445E+01
   .80800E+02   .74761E+02  -.29330E+01
   .81000E+02   .74800E+02  -.29216E+01
   .81200E+02   .74837E+02  -.29101E+01
   .81350E+02   .74864E+02  -.29015E+01
   .81500E+02   .74889E+02  -.28929E+01
   .81700E+02   .74923E+02  -.28820E+01
   .81900E+02   .74954E+02  -.28710E+01
   .82100E+02   .74985E+02  -.28601E+01
   .82300E+02   .75015E+02  -.28492E+01
   .82500E+02   .75044E+02  -.28382E+01
   .82700E+02   .75071E+02  -.28273E+01
   .82850E+02   .75091E+02  -.28191E+01
   .83000E+02   .75111E+02  -.28109E+01
   .83300E+02   .75149E+02  -.27956E+01
   .83500E+02   .75173E+02  -.27854E+01
   .83800E+02   .75209E+02  -.27701E+01
   .84000E+02   .75231E+02  -.27599E+01
   .84300E+02   .75265E+02  -.27448E+01
   .84500E+02   .75286E+02  -.27348E+01
   .84800E+02   .75317E+02  -.27197E+01
   .85000E+02   .75337E+02  -.27097E+01
   .85200E+02   .75357E+02  -.26996E+01
   .85400E+02   .75376E+02  -.26895E+01
   .85600E+02   .75395E+02  -.26794E+01
   .85800E+02   .75413E+02  -.26693E+01
   .86200E+02   .75448E+02  -.26492E+01
   .86500E+02   .75473E+02  -.26340E+01
   .86900E+02   .75506E+02  -.26140E+01
   .87300E+02   .75536E+02  -.25940E+01
   .87700E+02   .75565E+02  -.25740E+01
   .88000E+02   .75586E+02  -.25590E+01
   .88300E+02   .75606E+02  -.25448E+01
   .88500E+02   .75619E+02  -.25353E+01
   .88800E+02   .75638E+02  -.25211E+01
   .89000E+02   .75650E+02  -.25117E+01
   .89300E+02   .75668E+02  -.24979E+01
   .89500E+02   .75680E+02  -.24887E+01
   .89800E+02   .75697E+02  -.24749E+01
   .90000E+02   .75708E+02  -.24657E+01
   .90400E+02   .75730E+02  -.24483E+01
   .90800E+02   .75751E+02  -.24309E+01
   .91200E+02   .75771E+02  -.24135E+01
   .91500E+02   .75785E+02  -.24004E+01
   .91900E+02   .75804E+02  -.23837E+01
   .92300E+02   .75822E+02  -.23671E+01
   .92700E+02   .75840E+02  -.23504E+01
   .93000E+02   .75853E+02  -.23379E+01
   .93300E+02   .75865E+02  -.23260E+01
   .93500E+02   .75873E+02  -.23180E+01
   .94000E+02   .75893E+02  -.22982E+01
   .94500E+02   .75912E+02  -.22789E+01
   .94800E+02   .75923E+02  -.22673E+01
   .95000E+02   .75930E+02  -.22596E+01
   .95400E+02   .75944E+02  -.22447E+01
   .95800E+02   .75958E+02  -.22299E+01
   .96200E+02   .75971E+02  -.22150E+01
   .96500E+02   .75981E+02  -.22039E+01
   .96900E+02   .75994E+02  -.21897E+01
   .97300E+02   .76006E+02  -.21754E+01
   .97700E+02   .76018E+02  -.21612E+01
   .98000E+02   .76027E+02  -.21505E+01
   .98500E+02   .76041E+02  -.21332E+01
   .99000E+02   .76055E+02  -.21159E+01
   .99500E+02   .76068E+02  -.20990E+01
   .99800E+02   .76076E+02  -.20889E+01
   .10000E+03   .76081E+02  -.20822E+01
   .10040E+03   .76091E+02  -.20690E+01
   .10080E+03   .76101E+02  -.20557E+01
   .10120E+03   .76111E+02  -.20425E+01
   .10150E+03   .76118E+02  -.20326E+01
   .10190E+03   .76127E+02  -.20199E+01
   .10230E+03   .76135E+02  -.20072E+01
   .10270E+03   .76144E+02  -.19944E+01
   .10300E+03   .76150E+02  -.19849E+01
   .10350E+03   .76160E+02  -.19695E+01
   .10400E+03   .76170E+02  -.19541E+01
   .10450E+03   .76180E+02  -.19389E+01
   .10500E+03   .76189E+02  -.19237E+01
   .10580E+03   .76203E+02  -.19001E+01
   .10650E+03   .76215E+02  -.18795E+01
   .10730E+03   .76228E+02  -.18567E+01
   .10800E+03   .76239E+02  -.18369E+01
   .10850E+03   .76247E+02  -.18229E+01
   .10900E+03   .76254E+02  -.18089E+01
   .10950E+03   .76261E+02  -.17953E+01
   .11000E+03   .76267E+02  -.17816E+01
   .11080E+03   .76278E+02  -.17605E+01
   .11150E+03   .76286E+02  -.17419E+01
   .11230E+03   .76296E+02  -.17213E+01
   .11300E+03   .76303E+02  -.17033E+01
   .11350E+03   .76309E+02  -.16908E+01
   .11400E+03   .76314E+02  -.16782E+01
   .11500E+03   .76323E+02  -.16537E+01
   .11580E+03   .76330E+02  -.16349E+01
   .11650E+03   .76337E+02  -.16183E+01
   .11730E+03   .76343E+02  -.16000E+01
   .11800E+03   .76349E+02  -.15841E+01
   .11900E+03   .76356E+02  -.15619E+01
   .12000E+03   .76363E+02  -.15402E+01
   .12100E+03   .76369E+02  -.15192E+01
   .12200E+03   .76376E+02  -.14982E+01
   .12300E+03   .76381E+02  -.14782E+01
   .12400E+03   .76386E+02  -.14582E+01
   .12550E+03   .76394E+02  -.14295E+01
   .12700E+03   .76401E+02  -.14016E+01
   .12850E+03   .76407E+02  -.13746E+01
   .13000E+03   .76413E+02  -.13484E+01
   .13150E+03   .76418E+02  -.13227E+01
   .13300E+03   .76423E+02  -.12977E+01
   .13450E+03   .76427E+02  -.12735E+01
   .13600E+03   .76430E+02  -.12500E+01
   .13750E+03   .76434E+02  -.12271E+01
   .13900E+03   .76437E+02  -.12050E+01
   .14050E+03   .76439E+02  -.11834E+01
   .14200E+03   .76441E+02  -.11624E+01
   .14400E+03   .76444E+02  -.11354E+01
   .14540E+03   .76445E+02  -.11170E+01
   .14600E+03   .76446E+02  -.11093E+01
   .14670E+03   .76446E+02  -.11004E+01
   .14800E+03   .76447E+02  -.10842E+01
   .14900E+03   .76448E+02  -.10719E+01
   .14950E+03   .76448E+02  -.10659E+01
   .15000E+03   .76448E+02  -.10599E+01
   .15200E+03   .76449E+02  -.10366E+01
   .15400E+03   .76450E+02  -.10141E+01
   .15600E+03   .76450E+02  -.99229E+00
   .15800E+03   .76450E+02  -.97126E+00
   .16000E+03   .76449E+02  -.95092E+00
   .16200E+03   .76449E+02  -.93126E+00
   .16350E+03   .76448E+02  -.91694E+00
   .16500E+03   .76448E+02  -.90297E+00
   .16700E+03   .76447E+02  -.88485E+00
   .16900E+03   .76446E+02  -.86731E+00
   .17100E+03   .76444E+02  -.85032E+00
   .17300E+03   .76443E+02  -.83385E+00
   .17500E+03   .76442E+02  -.81789E+00
   .17700E+03   .76440E+02  -.80241E+00
   .18000E+03   .76437E+02  -.78005E+00
   .18300E+03   .76435E+02  -.75875E+00
   .18500E+03   .76433E+02  -.74506E+00
   .18800E+03   .76430E+02  -.72529E+00
   .19000E+03   .76428E+02  -.71258E+00
   .19300E+03   .76425E+02  -.69419E+00
   .19500E+03   .76423E+02  -.68236E+00
   .19800E+03   .76419E+02  -.66520E+00
   .20000E+03   .76417E+02  -.65413E+00
