    E(keV)         f1           f2     
   .10000E+01   .37883E+03  -.22582E+02
   .10006E+01   .24042E+03  -.22787E+02
   .10011E+01   .18694E+03  -.22944E+02
   .10021E+01   .13237E+03  -.23219E+02
   .10031E+01   .10369E+03  -.23462E+02
   .10031E+01   .10339E+03  -.23849E+02
   .10032E+01   .10309E+03  -.23470E+02
   .10038E+01   .91582E+02  -.23600E+02
   .10044E+01   .73988E+02  -.23719E+02
   .10044E+01   .82761E+02  -.53692E+02
   .10045E+01   .91526E+02  -.23726E+02
   .10045E+01   .85207E+02  -.23734E+02
   .10046E+01   .82249E+02  -.23742E+02
   .10046E+01   .82963E+02  -.27824E+02
   .10046E+01   .83754E+02  -.23750E+02
   .10053E+01   .74314E+02  -.23867E+02
   .10060E+01   .65449E+02  -.23974E+02
   .10060E+01   .67893E+02  -.32870E+02
   .10060E+01   .70239E+02  -.23981E+02
   .10060E+01   .69274E+02  -.25263E+02
   .10060E+01   .68998E+02  -.23986E+02
   .10062E+01   .66323E+02  -.24014E+02
   .10064E+01   .63499E+02  -.24041E+02
   .10065E+01   .64391E+02  -.27728E+02
   .10065E+01   .65251E+02  -.24047E+02
   .10065E+01   .64109E+02  -.24050E+02
   .10065E+01   .63186E+02  -.24054E+02
   .10065E+01   .64084E+02  -.28469E+02
   .10066E+01   .65197E+02  -.24060E+02
   .10067E+01   .63414E+02  -.24072E+02
   .10067E+01   .61710E+02  -.24084E+02
   .10068E+01   .62342E+02  -.27073E+02
   .10068E+01   .62865E+02  -.24089E+02
   .10068E+01   .62314E+02  -.24090E+02
   .10068E+01   .62536E+02  -.26399E+02
   .10068E+01   .62916E+02  -.24096E+02
   .10069E+01   .61964E+02  -.24102E+02
   .10069E+01   .60737E+02  -.24107E+02
   .10070E+01   .61551E+02  -.27574E+02
   .10070E+01   .62296E+02  -.24113E+02
   .10070E+01   .61238E+02  -.24116E+02
   .10070E+01   .60606E+02  -.24120E+02
   .10070E+01   .60813E+02  -.26465E+02
   .10071E+01   .61081E+02  -.24125E+02
   .10071E+01   .60648E+02  -.24128E+02
   .10071E+01   .60603E+02  -.25773E+02
   .10071E+01   .60555E+02  -.24133E+02
   .10071E+01   .60137E+02  -.24135E+02
   .10072E+01   .60187E+02  -.26175E+02
   .10072E+01   .60282E+02  -.24141E+02
   .10072E+01   .60024E+02  -.24142E+02
   .10072E+01   .60080E+02  -.25697E+02
   .10072E+01   .59980E+02  -.24148E+02
   .10073E+01   .59866E+02  -.25437E+02
   .10073E+01   .59926E+02  -.24154E+02
   .10073E+01   .59633E+02  -.24156E+02
   .10073E+01   .59506E+02  -.24157E+02
   .10073E+01   .59306E+02  -.24256E+02
   .10073E+01   .59220E+02  -.24543E+02
   .10073E+01   .59141E+02  -.24738E+02
   .10074E+01   .59065E+02  -.24935E+02
   .10074E+01   .58858E+02  -.24953E+02
   .10074E+01   .58729E+02  -.24964E+02
   .10074E+01   .58547E+02  -.24982E+02
   .10075E+01   .58205E+02  -.25016E+02
   .10076E+01   .57681E+02  -.25074E+02
   .10077E+01   .57188E+02  -.25133E+02
   .10079E+01   .56184E+02  -.25254E+02
   .10081E+01   .55218E+02  -.25379E+02
   .10086E+01   .52960E+02  -.25708E+02
   .10090E+01   .51306E+02  -.25991E+02
   .10095E+01   .49418E+02  -.26361E+02
   .10100E+01   .47692E+02  -.26754E+02
   .10105E+01   .46141E+02  -.27168E+02
   .10110E+01   .44711E+02  -.27589E+02
   .10117E+01   .42938E+02  -.28203E+02
   .10125E+01   .41188E+02  -.28926E+02
   .10132E+01   .39884E+02  -.29564E+02
   .10140E+01   .38617E+02  -.30282E+02
   .10148E+01   .37562E+02  -.30976E+02
   .10155E+01   .36794E+02  -.31551E+02
   .10163E+01   .36065E+02  -.32164E+02
   .10170E+01   .35546E+02  -.32657E+02
   .10178E+01   .35057E+02  -.33163E+02
   .10185E+01   .34710E+02  -.33559E+02
   .10192E+01   .34425E+02  -.33911E+02
   .10196E+01   .34283E+02  -.34091E+02
   .10200E+01   .34156E+02  -.34259E+02
   .10207E+01   .33959E+02  -.34528E+02
   .10215E+01   .33779E+02  -.34789E+02
   .10222E+01   .33639E+02  -.34983E+02
   .10230E+01   .33518E+02  -.35177E+02
   .10235E+01   .33446E+02  -.35279E+02
   .10240E+01   .33389E+02  -.35371E+02
   .10250E+01   .33282E+02  -.35528E+02
   .10265E+01   .33150E+02  -.35706E+02
   .10280E+01   .33050E+02  -.35831E+02
   .10290E+01   .32999E+02  -.35897E+02
   .10300E+01   .32961E+02  -.35950E+02
   .10315E+01   .32921E+02  -.36003E+02
   .10330E+01   .32901E+02  -.36036E+02
   .10345E+01   .32895E+02  -.36047E+02
   .10360E+01   .32905E+02  -.36043E+02
   .10375E+01   .32923E+02  -.36024E+02
   .10390E+01   .32963E+02  -.36004E+02
   .10400E+01   .32990E+02  -.35975E+02
   .10410E+01   .33020E+02  -.35947E+02
   .10430E+01   .33088E+02  -.35867E+02
   .10450E+01   .33165E+02  -.35788E+02
   .10465E+01   .33221E+02  -.35712E+02
   .10480E+01   .33280E+02  -.35637E+02
   .10500E+01   .33359E+02  -.35521E+02
   .10520E+01   .33434E+02  -.35405E+02
   .10535E+01   .33490E+02  -.35317E+02
   .10550E+01   .33545E+02  -.35230E+02
   .10570E+01   .33606E+02  -.35122E+02
   .10590E+01   .33690E+02  -.35014E+02
   .10610E+01   .33758E+02  -.34906E+02
   .10630E+01   .33832E+02  -.34798E+02
   .10670E+01   .33990E+02  -.34583E+02
   .10700E+01   .34111E+02  -.34421E+02
   .10720E+01   .34194E+02  -.34319E+02
   .10750E+01   .34318E+02  -.34167E+02
   .10800E+01   .34521E+02  -.33914E+02
   .10850E+01   .34724E+02  -.33681E+02
   .10880E+01   .34848E+02  -.33541E+02
   .10900E+01   .34931E+02  -.33447E+02
   .10940E+01   .35093E+02  -.33271E+02
   .10980E+01   .35252E+02  -.33094E+02
   .11020E+01   .35412E+02  -.32917E+02
   .11050E+01   .35529E+02  -.32785E+02
   .11090E+01   .35682E+02  -.32623E+02
   .11130E+01   .35829E+02  -.32462E+02
   .11200E+01   .36091E+02  -.32179E+02
   .11260E+01   .36310E+02  -.31949E+02
   .11320E+01   .36522E+02  -.31719E+02
   .11380E+01   .36727E+02  -.31496E+02
   .11431E+01   .36894E+02  -.31309E+02
   .11500E+01   .37111E+02  -.31061E+02
   .11570E+01   .37319E+02  -.30812E+02
   .11640E+01   .37516E+02  -.30572E+02
   .11700E+01   .37676E+02  -.30366E+02
   .11780E+01   .37873E+02  -.30099E+02
   .11850E+01   .38030E+02  -.29866E+02
   .11920E+01   .38169E+02  -.29641E+02
   .12000E+01   .38309E+02  -.29384E+02
   .12070E+01   .38412E+02  -.29167E+02
   .12150E+01   .38505E+02  -.28919E+02
   .12230E+01   .38565E+02  -.28675E+02
   .12300E+01   .38583E+02  -.28462E+02
   .12360E+01   .38564E+02  -.28284E+02
   .12420E+01   .38508E+02  -.28107E+02
   .12480E+01   .38400E+02  -.27930E+02
   .12540E+01   .38218E+02  -.27752E+02
   .12570E+01   .38088E+02  -.27667E+02
   .12600E+01   .37921E+02  -.27581E+02
   .12630E+01   .37703E+02  -.27495E+02
   .12660E+01   .37415E+02  -.27409E+02
   .12690E+01   .37015E+02  -.27325E+02
   .12705E+01   .36753E+02  -.27283E+02
   .12720E+01   .36427E+02  -.27242E+02
   .12735E+01   .36011E+02  -.27200E+02
   .12750E+01   .35455E+02  -.27158E+02
   .12770E+01   .34288E+02  -.27102E+02
   .12788E+01   .27889E+02  -.27050E+02
   .12789E+01   .31599E+02  -.40617E+02
   .12789E+01   .35298E+02  -.27049E+02
   .12791E+01   .30442E+02  -.27043E+02
   .12793E+01   .10099E+02  -.27037E+02
   .12794E+01   .32536E+02  -.10679E+03
   .12794E+01   .54975E+02  -.27035E+02
   .12803E+01   .31222E+02  -.27010E+02
   .12812E+01   .27712E+02  -.26986E+02
   .12821E+01   .18682E+02  -.26961E+02
   .12829E+01  -.10312E+03  -.26937E+02
   .12830E+01  -.38958E+02  -.28462E+03
   .12830E+01   .22594E+02  -.26936E+02
   .12831E+01  -.88331E+02  -.26934E+02
   .12832E+01  -.53131E+03  -.26931E+02
   .12832E+01   .45881E+02  -.20722E+04
   .12832E+01   .62340E+03  -.26930E+02
   .12837E+01   .73718E+02  -.26917E+02
   .12842E+01   .53862E+02  -.26902E+02
   .12845E+01   .49852E+02  -.26895E+02
   .12848E+01   .46462E+02  -.26886E+02
   .12850E+01   .44380E+02  -.26881E+02
   .12853E+01   .35481E+02  -.26874E+02
   .12853E+01   .42616E+02  -.53044E+02
   .12853E+01   .49741E+02  -.26872E+02
   .12855E+01   .40256E+02  -.26866E+02
   .12858E+01   .89302E+01  -.26860E+02
   .12858E+01   .43359E+02  -.14039E+03
   .12858E+01   .72932E+02  -.26859E+02
   .12860E+01   .45827E+02  -.26854E+02
   .12861E+01   .39629E+02  -.26850E+02
   .12862E+01   .41730E+02  -.36583E+02
   .12862E+01   .43779E+02  -.26849E+02
   .12863E+01   .39544E+02  -.26847E+02
   .12863E+01   .28246E+02  -.26844E+02
   .12864E+01   .41545E+02  -.75295E+02
   .12864E+01   .54824E+02  -.26843E+02
   .12865E+01   .45304E+02  -.26842E+02
   .12865E+01   .41571E+02  -.26840E+02
   .12865E+01   .41569E+02  -.31535E+02
   .12866E+01   .41408E+02  -.26839E+02
   .12866E+01   .39480E+02  -.26838E+02
   .12866E+01   .34745E+02  -.26837E+02
   .12866E+01   .41625E+02  -.52119E+02
   .12867E+01   .47319E+02  -.26836E+02
   .12867E+01   .45217E+02  -.26835E+02
   .12867E+01   .43678E+02  -.26835E+02
   .12867E+01   .41628E+02  -.29462E+02
   .12867E+01   .38972E+02  -.26833E+02
   .12868E+01   .41663E+02  -.41698E+02
   .12868E+01   .44408E+02  -.26832E+02
   .12868E+01   .42681E+02  -.26831E+02
   .12868E+01   .39757E+02  -.26831E+02
   .12869E+01   .42002E+02  -.37928E+02
   .12869E+01   .43321E+02  -.26830E+02
   .12869E+01   .41938E+02  -.26829E+02
   .12869E+01   .41825E+02  -.35049E+02
   .12870E+01   .41865E+02  -.26828E+02
   .12870E+01   .40777E+02  -.26827E+02
   .12870E+01   .41413E+02  -.35641E+02
   .12870E+01   .42161E+02  -.26826E+02
   .12870E+01   .40935E+02  -.26826E+02
   .12870E+01   .41347E+02  -.31882E+02
   .12871E+01   .41893E+02  -.36939E+02
   .12871E+01   .43216E+02  -.30196E+02
   .12871E+01   .43625E+02  -.26824E+02
   .12871E+01   .42331E+02  -.31264E+02
   .12871E+01   .41506E+02  -.26823E+02
   .12872E+01   .39761E+02  -.28087E+02
   .12872E+01   .39209E+02  -.29417E+02
   .12872E+01   .39658E+02  -.30811E+02
   .12872E+01   .40062E+02  -.30812E+02
   .12872E+01   .40431E+02  -.30812E+02
   .12873E+01   .40568E+02  -.30811E+02
   .12873E+01   .40656E+02  -.30811E+02
   .12873E+01   .40716E+02  -.30810E+02
   .12873E+01   .40759E+02  -.30809E+02
   .12874E+01   .40802E+02  -.30809E+02
   .12874E+01   .40822E+02  -.30808E+02
   .12874E+01   .40844E+02  -.30807E+02
   .12874E+01   .40853E+02  -.30807E+02
   .12874E+01   .40863E+02  -.30806E+02
   .12875E+01   .40870E+02  -.30804E+02
   .12875E+01   .40869E+02  -.30803E+02
   .12876E+01   .40864E+02  -.30802E+02
   .12876E+01   .40856E+02  -.30800E+02
   .12877E+01   .40846E+02  -.30799E+02
   .12878E+01   .40821E+02  -.30796E+02
   .12879E+01   .40794E+02  -.30793E+02
   .12880E+01   .40774E+02  -.30791E+02
   .12881E+01   .40750E+02  -.30788E+02
   .12882E+01   .40708E+02  -.30784E+02
   .12884E+01   .40652E+02  -.30778E+02
   .12886E+01   .40600E+02  -.30773E+02
   .12888E+01   .40564E+02  -.30768E+02
   .12889E+01   .40530E+02  -.30764E+02
   .12893E+01   .40449E+02  -.30753E+02
   .12897E+01   .40381E+02  -.30741E+02
   .12900E+01   .40338E+02  -.30733E+02
   .12904E+01   .40289E+02  -.30721E+02
   .12908E+01   .40250E+02  -.30710E+02
   .12911E+01   .40225E+02  -.30701E+02
   .12915E+01   .40198E+02  -.30690E+02
   .12923E+01   .40159E+02  -.30667E+02
   .12930E+01   .40139E+02  -.30647E+02
   .12938E+01   .40128E+02  -.30624E+02
   .12945E+01   .40127E+02  -.30604E+02
   .12952E+01   .40131E+02  -.30584E+02
   .12960E+01   .40142E+02  -.30562E+02
   .12975E+01   .40176E+02  -.30519E+02
   .12990E+01   .40220E+02  -.30477E+02
   .13005E+01   .40272E+02  -.30435E+02
   .13020E+01   .40328E+02  -.30393E+02
   .13040E+01   .40407E+02  -.30337E+02
   .13070E+01   .40529E+02  -.30253E+02
   .13100E+01   .40653E+02  -.30170E+02
   .13130E+01   .40774E+02  -.30087E+02
   .13170E+01   .40931E+02  -.29978E+02
   .13200E+01   .41043E+02  -.29896E+02
   .13230E+01   .41152E+02  -.29814E+02
   .13270E+01   .41289E+02  -.29706E+02
   .13300E+01   .41386E+02  -.29626E+02
   .13361E+01   .41566E+02  -.29464E+02
   .13420E+01   .41723E+02  -.29308E+02
   .13480E+01   .41856E+02  -.29151E+02
   .13540E+01   .41959E+02  -.28994E+02
   .13600E+01   .42024E+02  -.28836E+02
   .13660E+01   .42033E+02  -.28685E+02
   .13690E+01   .42005E+02  -.28609E+02
   .13720E+01   .41944E+02  -.28534E+02
   .13750E+01   .41832E+02  -.28458E+02
   .13780E+01   .41634E+02  -.28382E+02
   .13795E+01   .41478E+02  -.28344E+02
   .13810E+01   .41256E+02  -.28306E+02
   .13830E+01   .40743E+02  -.28256E+02
   .13850E+01   .26084E+02  -.28206E+02
   .13850E+01   .40178E+02  -.74546E+02
   .13850E+01   .54272E+02  -.28205E+02
   .13860E+01   .39843E+02  -.28181E+02
   .13870E+01   .38119E+02  -.28155E+02
   .13881E+01   .33391E+02  -.28129E+02
   .13891E+01  -.24760E+03  -.28105E+02
   .13891E+01   .41967E+02  -.97632E+03
   .13891E+01   .33153E+03  -.28104E+02
   .13897E+01   .56044E+02  -.28090E+02
   .13902E+01   .49083E+02  -.28076E+02
   .13908E+01   .46322E+02  -.28063E+02
   .13914E+01   .41721E+02  -.28049E+02
   .13914E+01   .44405E+02  -.37188E+02
   .13914E+01   .47084E+02  -.28047E+02
   .13917E+01   .43413E+02  -.28042E+02
   .13919E+01   .31454E+02  -.28036E+02
   .13919E+01   .44185E+02  -.69935E+02
   .13919E+01   .56915E+02  -.28035E+02
   .13921E+01   .45700E+02  -.28031E+02
   .13922E+01   .43239E+02  -.28028E+02
   .13923E+01   .44007E+02  -.31427E+02
   .13923E+01   .44754E+02  -.28026E+02
   .13924E+01   .43075E+02  -.28024E+02
   .13924E+01   .38505E+02  -.28022E+02
   .13925E+01   .43851E+02  -.46108E+02
   .13925E+01   .49187E+02  -.28021E+02
   .13926E+01   .45326E+02  -.28020E+02
   .13926E+01   .43805E+02  -.28018E+02
   .13926E+01   .43742E+02  -.29658E+02
   .13927E+01   .43613E+02  -.28017E+02
   .13927E+01   .42824E+02  -.28017E+02
   .13927E+01   .40957E+02  -.28016E+02
   .13928E+01   .43469E+02  -.37487E+02
   .13928E+01   .45938E+02  -.28014E+02
   .13928E+01   .44428E+02  -.28014E+02
   .13928E+01   .43858E+02  -.28014E+02
   .13928E+01   .42895E+02  -.28931E+02
   .13929E+01   .41549E+02  -.28245E+02
   .13929E+01   .41230E+02  -.28425E+02
   .13929E+01   .41597E+02  -.28803E+02
   .13929E+01   .42264E+02  -.35337E+02
   .13929E+01   .43503E+02  -.29588E+02
   .13929E+01   .44236E+02  -.29617E+02
   .13930E+01   .43574E+02  -.29617E+02
   .13930E+01   .43129E+02  -.29616E+02
   .13930E+01   .43606E+02  -.33547E+02
   .13930E+01   .44349E+02  -.29615E+02
   .13930E+01   .43833E+02  -.29615E+02
   .13930E+01   .43352E+02  -.29615E+02
   .13931E+01   .44245E+02  -.33990E+02
   .13931E+01   .44647E+02  -.29613E+02
   .13931E+01   .44234E+02  -.29613E+02
   .13931E+01   .44675E+02  -.32978E+02
   .13932E+01   .44925E+02  -.29612E+02
   .13932E+01   .45133E+02  -.32166E+02
   .13932E+01   .45233E+02  -.29611E+02
   .13932E+01   .45477E+02  -.29611E+02
   .13932E+01   .45680E+02  -.29610E+02
   .13932E+01   .45505E+02  -.30354E+02
   .13933E+01   .45333E+02  -.29609E+02
   .13933E+01   .44804E+02  -.29608E+02
   .13934E+01   .44602E+02  -.29606E+02
   .13935E+01   .44442E+02  -.29604E+02
   .13936E+01   .44342E+02  -.29601E+02
   .13937E+01   .44242E+02  -.29598E+02
   .13939E+01   .44171E+02  -.29595E+02
   .13941E+01   .44116E+02  -.29591E+02
   .13942E+01   .44072E+02  -.29588E+02
   .13946E+01   .43985E+02  -.29578E+02
   .13949E+01   .43936E+02  -.29572E+02
   .13953E+01   .43887E+02  -.29562E+02
   .13956E+01   .43857E+02  -.29555E+02
   .13960E+01   .43826E+02  -.29546E+02
   .13965E+01   .43797E+02  -.29535E+02
   .13970E+01   .43775E+02  -.29523E+02
   .13980E+01   .43751E+02  -.29500E+02
   .13990E+01   .43743E+02  -.29477E+02
   .14000E+01   .43746E+02  -.29454E+02
   .14010E+01   .43757E+02  -.29431E+02
   .14020E+01   .43773E+02  -.29407E+02
   .14040E+01   .43818E+02  -.29361E+02
   .14060E+01   .43873E+02  -.29315E+02
   .14080E+01   .43933E+02  -.29269E+02
   .14100E+01   .43997E+02  -.29223E+02
   .14130E+01   .44095E+02  -.29153E+02
   .14150E+01   .44163E+02  -.29107E+02
   .14200E+01   .44331E+02  -.28992E+02
   .14250E+01   .44497E+02  -.28876E+02
   .14300E+01   .44658E+02  -.28760E+02
   .14350E+01   .44813E+02  -.28645E+02
   .14400E+01   .44963E+02  -.28529E+02
   .14450E+01   .45109E+02  -.28414E+02
   .14500E+01   .45251E+02  -.28298E+02
   .14550E+01   .45389E+02  -.28183E+02
   .14600E+01   .45520E+02  -.28067E+02
   .14650E+01   .45645E+02  -.27952E+02
   .14707E+01   .45781E+02  -.27819E+02
   .14740E+01   .45856E+02  -.27747E+02
   .14780E+01   .45945E+02  -.27659E+02
   .14850E+01   .46094E+02  -.27504E+02
   .14930E+01   .46252E+02  -.27327E+02
   .15000E+01   .46381E+02  -.27172E+02
   .15050E+01   .46465E+02  -.27063E+02
   .15100E+01   .46541E+02  -.26955E+02
   .15150E+01   .46606E+02  -.26847E+02
   .15200E+01   .46661E+02  -.26739E+02
   .15240E+01   .46694E+02  -.26652E+02
   .15270E+01   .46711E+02  -.26587E+02
   .15310E+01   .46721E+02  -.26501E+02
   .15340E+01   .46713E+02  -.26436E+02
   .15380E+01   .46671E+02  -.26349E+02
   .15395E+01   .46641E+02  -.26317E+02
   .15410E+01   .46598E+02  -.26284E+02
   .15430E+01   .46513E+02  -.26241E+02
   .15440E+01   .46450E+02  -.26219E+02
   .15450E+01   .46365E+02  -.26198E+02
   .15460E+01   .46242E+02  -.26176E+02
   .15470E+01   .46044E+02  -.26154E+02
   .15476E+01   .45840E+02  -.26141E+02
   .15482E+01   .44940E+02  -.26128E+02
   .15482E+01   .45473E+02  -.28023E+02
   .15483E+01   .46001E+02  -.26127E+02
   .15483E+01   .45461E+02  -.26125E+02
   .15484E+01   .44750E+02  -.26123E+02
   .15485E+01   .45486E+02  -.28723E+02
   .15485E+01   .46223E+02  -.26122E+02
   .15490E+01   .44581E+02  -.26112E+02
   .15495E+01   .29384E+02  -.26101E+02
   .15495E+01   .42150E+02  -.71239E+02
   .15496E+01   .54536E+02  -.26100E+02
   .15496E+01   .44742E+02  -.26099E+02
   .15496E+01   .34035E+02  -.26098E+02
   .15497E+01   .49330E+02  -.80380E+02
   .15497E+01   .64940E+02  -.26097E+02
   .15500E+01   .48474E+02  -.26090E+02
   .15504E+01   .46916E+02  -.26083E+02
   .15507E+01   .46031E+02  -.26076E+02
   .15511E+01   .36631E+02  -.26068E+02
   .15511E+01   .45620E+02  -.56729E+02
   .15511E+01   .54716E+02  -.26067E+02
   .15512E+01   .48143E+02  -.26064E+02
   .15514E+01   .46892E+02  -.26062E+02
   .15515E+01   .45970E+02  -.26059E+02
   .15516E+01   .42571E+02  -.26057E+02
   .15516E+01   .46862E+02  -.39486E+02
   .15517E+01   .50132E+02  -.26056E+02
   .15517E+01   .47535E+02  -.26055E+02
   .15518E+01   .46616E+02  -.26053E+02
   .15518E+01   .45966E+02  -.26053E+02
   .15519E+01   .44394E+02  -.26051E+02
   .15519E+01   .45157E+02  -.29562E+02
   .15519E+01   .46400E+02  -.33074E+02
   .15519E+01   .47903E+02  -.26050E+02
   .15519E+01   .46894E+02  -.26050E+02
   .15520E+01   .46220E+02  -.26049E+02
   .15520E+01   .45528E+02  -.26049E+02
   .15520E+01   .44659E+02  -.26278E+02
   .15520E+01   .44881E+02  -.26555E+02
   .15520E+01   .45558E+02  -.30973E+02
   .15521E+01   .46575E+02  -.27246E+02
   .15521E+01   .46049E+02  -.27245E+02
   .15521E+01   .45391E+02  -.27245E+02
   .15522E+01   .46341E+02  -.31697E+02
   .15522E+01   .47474E+02  -.27243E+02
   .15522E+01   .47096E+02  -.27243E+02
   .15522E+01   .46386E+02  -.27243E+02
   .15523E+01   .46936E+02  -.30164E+02
   .15523E+01   .47467E+02  -.27241E+02
   .15523E+01   .47230E+02  -.27241E+02
   .15523E+01   .47447E+02  -.29448E+02
   .15524E+01   .47925E+02  -.27240E+02
   .15524E+01   .47323E+02  -.27238E+02
   .15525E+01   .47156E+02  -.27237E+02
   .15526E+01   .47046E+02  -.27235E+02
   .15527E+01   .46990E+02  -.27232E+02
   .15529E+01   .46945E+02  -.27229E+02
   .15530E+01   .46923E+02  -.27226E+02
   .15532E+01   .46912E+02  -.27223E+02
   .15533E+01   .46908E+02  -.27220E+02
   .15537E+01   .46912E+02  -.27211E+02
   .15540E+01   .46923E+02  -.27205E+02
   .15544E+01   .46942E+02  -.27196E+02
   .15547E+01   .46957E+02  -.27190E+02
   .15550E+01   .46974E+02  -.27183E+02
   .15555E+01   .47003E+02  -.27173E+02
   .15560E+01   .47032E+02  -.27162E+02
   .15570E+01   .47089E+02  -.27141E+02
   .15580E+01   .47144E+02  -.27120E+02
   .15590E+01   .47196E+02  -.27098E+02
   .15600E+01   .47247E+02  -.27077E+02
   .15610E+01   .47295E+02  -.27056E+02
   .15625E+01   .47364E+02  -.27024E+02
   .15640E+01   .47430E+02  -.26992E+02
   .15660E+01   .47512E+02  -.26949E+02
   .15680E+01   .47590E+02  -.26907E+02
   .15700E+01   .47665E+02  -.26864E+02
   .15750E+01   .47837E+02  -.26758E+02
   .15800E+01   .47994E+02  -.26652E+02
   .15850E+01   .48141E+02  -.26545E+02
   .15900E+01   .48280E+02  -.26439E+02
   .15940E+01   .48386E+02  -.26358E+02
   .15970E+01   .48462E+02  -.26297E+02
   .16050E+01   .48658E+02  -.26135E+02
   .16130E+01   .48842E+02  -.25972E+02
   .16200E+01   .48995E+02  -.25830E+02
   .16280E+01   .49164E+02  -.25675E+02
   .16350E+01   .49305E+02  -.25538E+02
   .16430E+01   .49460E+02  -.25383E+02
   .16500E+01   .49592E+02  -.25247E+02
   .16650E+01   .49861E+02  -.24966E+02
   .16800E+01   .50117E+02  -.24686E+02
   .16950E+01   .50358E+02  -.24412E+02
   .17100E+01   .50585E+02  -.24137E+02
   .17250E+01   .50800E+02  -.23874E+02
   .17400E+01   .51004E+02  -.23610E+02
   .17550E+01   .51199E+02  -.23356E+02
   .17700E+01   .51385E+02  -.23103E+02
   .17850E+01   .51564E+02  -.22859E+02
   .18000E+01   .51737E+02  -.22615E+02
   .18100E+01   .51848E+02  -.22455E+02
   .18200E+01   .51956E+02  -.22295E+02
   .18350E+01   .52111E+02  -.22062E+02
   .18500E+01   .52259E+02  -.21830E+02
   .18600E+01   .52355E+02  -.21679E+02
   .18700E+01   .52449E+02  -.21529E+02
   .19000E+01   .52717E+02  -.21091E+02
   .19100E+01   .52804E+02  -.20947E+02
   .19200E+01   .52886E+02  -.20803E+02
   .19350E+01   .53005E+02  -.20593E+02
   .19500E+01   .53120E+02  -.20383E+02
   .19700E+01   .53265E+02  -.20111E+02
   .19850E+01   .53370E+02  -.19914E+02
   .20000E+01   .53472E+02  -.19716E+02
   .20150E+01   .53571E+02  -.19524E+02
   .20300E+01   .53666E+02  -.19331E+02
   .20500E+01   .53787E+02  -.19084E+02
   .20700E+01   .53904E+02  -.18838E+02
   .20900E+01   .54016E+02  -.18597E+02
   .21100E+01   .54121E+02  -.18357E+02
   .21300E+01   .54221E+02  -.18127E+02
   .21500E+01   .54318E+02  -.17898E+02
   .21650E+01   .54388E+02  -.17729E+02
   .21800E+01   .54454E+02  -.17560E+02
   .22000E+01   .54537E+02  -.17343E+02
   .22200E+01   .54618E+02  -.17126E+02
   .22400E+01   .54694E+02  -.16916E+02
   .22600E+01   .54765E+02  -.16706E+02
   .22800E+01   .54832E+02  -.16504E+02
   .23000E+01   .54896E+02  -.16303E+02
   .23200E+01   .54957E+02  -.16110E+02
   .23500E+01   .55041E+02  -.15820E+02
   .23700E+01   .55094E+02  -.15636E+02
   .24000E+01   .55167E+02  -.15361E+02
   .24200E+01   .55213E+02  -.15186E+02
   .24500E+01   .55278E+02  -.14924E+02
   .24800E+01   .55338E+02  -.14675E+02
   .25000E+01   .55376E+02  -.14509E+02
   .25300E+01   .55430E+02  -.14266E+02
   .25600E+01   .55478E+02  -.14031E+02
   .25900E+01   .55522E+02  -.13806E+02
   .26210E+01   .55565E+02  -.13573E+02
   .26220E+01   .55566E+02  -.13565E+02
   .26230E+01   .55568E+02  -.13558E+02
   .26500E+01   .55603E+02  -.13364E+02
   .26700E+01   .55627E+02  -.13220E+02
   .26900E+01   .55650E+02  -.13080E+02
   .27100E+01   .55670E+02  -.12941E+02
   .27500E+01   .55706E+02  -.12671E+02
   .28000E+01   .55746E+02  -.12347E+02
   .28500E+01   .55778E+02  -.12034E+02
   .29000E+01   .55802E+02  -.11734E+02
   .29500E+01   .55820E+02  -.11445E+02
   .29800E+01   .55828E+02  -.11278E+02
   .30000E+01   .55833E+02  -.11167E+02
   .30500E+01   .55840E+02  -.10899E+02
   .31000E+01   .55841E+02  -.10642E+02
   .31500E+01   .55838E+02  -.10394E+02
   .32000E+01   .55831E+02  -.10157E+02
   .32500E+01   .55821E+02  -.99277E+01
   .33000E+01   .55809E+02  -.97074E+01
   .33500E+01   .55793E+02  -.94924E+01
   .34000E+01   .55773E+02  -.92852E+01
   .34500E+01   .55751E+02  -.90855E+01
   .35000E+01   .55726E+02  -.88929E+01
   .35500E+01   .55699E+02  -.87049E+01
   .36000E+01   .55668E+02  -.85235E+01
   .36700E+01   .55620E+02  -.82798E+01
   .37400E+01   .55568E+02  -.80475E+01
   .38100E+01   .55513E+02  -.78256E+01
   .38723E+01   .55460E+02  -.76352E+01
   .38900E+01   .55445E+02  -.75824E+01
   .39100E+01   .55427E+02  -.75236E+01
   .39400E+01   .55399E+02  -.74367E+01
   .40000E+01   .55343E+02  -.72680E+01
   .40400E+01   .55304E+02  -.71577E+01
   .40600E+01   .55283E+02  -.71037E+01
   .40860E+01   .55256E+02  -.70344E+01
   .41400E+01   .55197E+02  -.68939E+01
   .41900E+01   .55143E+02  -.67680E+01
   .42500E+01   .55072E+02  -.66218E+01
   .43000E+01   .55013E+02  -.65040E+01
   .43500E+01   .54950E+02  -.63888E+01
   .44000E+01   .54887E+02  -.62770E+01
   .44500E+01   .54820E+02  -.61684E+01
   .45000E+01   .54752E+02  -.60629E+01
   .45800E+01   .54637E+02  -.58992E+01
   .46500E+01   .54531E+02  -.57618E+01
   .47300E+01   .54404E+02  -.56112E+01
   .48000E+01   .54286E+02  -.54846E+01
   .48500E+01   .54199E+02  -.53966E+01
   .49000E+01   .54107E+02  -.53109E+01
   .49500E+01   .54013E+02  -.52285E+01
   .50000E+01   .53914E+02  -.51461E+01
   .50500E+01   .53812E+02  -.50661E+01
   .51000E+01   .53704E+02  -.49881E+01
   .51500E+01   .53591E+02  -.49130E+01
   .52000E+01   .53473E+02  -.48379E+01
   .52600E+01   .53323E+02  -.47523E+01
   .53100E+01   .53190E+02  -.46810E+01
   .53600E+01   .53050E+02  -.46122E+01
   .53900E+01   .52962E+02  -.45719E+01
   .54147E+01   .52887E+02  -.45388E+01
   .54500E+01   .52776E+02  -.44929E+01
   .54900E+01   .52643E+02  -.44408E+01
   .55200E+01   .52539E+02  -.44029E+01
   .55600E+01   .52392E+02  -.43524E+01
   .55900E+01   .52276E+02  -.43156E+01
   .56300E+01   .52112E+02  -.42666E+01
   .56600E+01   .51981E+02  -.42311E+01
   .57000E+01   .51796E+02  -.41837E+01
   .57200E+01   .51697E+02  -.41607E+01
   .57400E+01   .51594E+02  -.41378E+01
   .57600E+01   .51487E+02  -.41149E+01
   .57800E+01   .51375E+02  -.40920E+01
   .57950E+01   .51287E+02  -.40753E+01
   .58100E+01   .51196E+02  -.40587E+01
   .58300E+01   .51069E+02  -.40366E+01
   .58500E+01   .50934E+02  -.40144E+01
   .58650E+01   .50829E+02  -.39983E+01
   .58800E+01   .50718E+02  -.39822E+01
   .59000E+01   .50562E+02  -.39607E+01
   .59200E+01   .50395E+02  -.39392E+01
   .59400E+01   .50215E+02  -.39184E+01
   .59600E+01   .50021E+02  -.38976E+01
   .59800E+01   .49810E+02  -.38768E+01
   .60000E+01   .49577E+02  -.38561E+01
   .60100E+01   .49451E+02  -.38458E+01
   .60200E+01   .49319E+02  -.38356E+01
   .60350E+01   .49104E+02  -.38203E+01
   .60500E+01   .48867E+02  -.38050E+01
   .60600E+01   .48695E+02  -.37950E+01
   .60700E+01   .48508E+02  -.37850E+01
   .60780E+01   .48347E+02  -.37770E+01
   .60850E+01   .48197E+02  -.37700E+01
   .60930E+01   .48011E+02  -.37620E+01
   .61000E+01   .47835E+02  -.37550E+01
   .61080E+01   .47617E+02  -.37473E+01
   .61150E+01   .47406E+02  -.37405E+01
   .61220E+01   .47174E+02  -.37337E+01
   .61300E+01   .46876E+02  -.37260E+01
   .61350E+01   .46668E+02  -.37211E+01
   .61400E+01   .46438E+02  -.37163E+01
   .61450E+01   .46184E+02  -.37114E+01
   .61500E+01   .45897E+02  -.37066E+01
   .61550E+01   .45569E+02  -.37017E+01
   .61580E+01   .45348E+02  -.36988E+01
   .61600E+01   .45188E+02  -.36969E+01
   .61630E+01   .44927E+02  -.36940E+01
   .61650E+01   .44734E+02  -.36920E+01
   .61680E+01   .44412E+02  -.36891E+01
   .61700E+01   .44172E+02  -.36872E+01
   .61730E+01   .43761E+02  -.36843E+01
   .61745E+01   .43528E+02  -.36828E+01
   .61760E+01   .43270E+02  -.36814E+01
   .61775E+01   .42985E+02  -.36799E+01
   .61790E+01   .42665E+02  -.36785E+01
   .61800E+01   .42428E+02  -.36775E+01
   .61810E+01   .42169E+02  -.36765E+01
   .61825E+01   .41731E+02  -.36751E+01
   .61840E+01   .41213E+02  -.36736E+01
   .61855E+01   .40589E+02  -.36722E+01
   .61870E+01   .39812E+02  -.36707E+01
   .61885E+01   .38803E+02  -.36693E+01
   .61900E+01   .37403E+02  -.36678E+01
   .61911E+01   .35919E+02  -.36668E+01
   .61922E+01   .32972E+02  -.36657E+01
   .61923E+01   .33038E+02  -.45639E+01
   .61923E+01   .33082E+02  -.54622E+01
   .61925E+01   .33063E+02  -.36654E+01
   .61926E+01   .31945E+02  -.36653E+01
   .61927E+01   .30085E+02  -.36652E+01
   .61928E+01   .32860E+02  -.13986E+02
   .61929E+01   .35635E+02  -.36650E+01
   .61938E+01   .29569E+02  -.36642E+01
   .61943E+01   .26474E+02  -.36637E+01
   .61947E+01   .22618E+02  -.36633E+01
   .61952E+01   .16265E+02  -.36628E+01
   .61956E+01   .64015E+01  -.36625E+01
   .61961E+01  -.25681E+02  -.36620E+01
   .61965E+01  -.24529E+03  -.36616E+01
   .61967E+01   .46739E+02  -.91732E+03
   .61968E+01   .32596E+03  -.36613E+01
   .61972E+01   .10532E+03  -.36609E+01
   .61975E+01   .81770E+02  -.36607E+01
   .61977E+01   .73327E+02  -.36605E+01
   .61980E+01   .65024E+02  -.36602E+01
   .61982E+01   .60988E+02  -.36600E+01
   .61984E+01   .57526E+02  -.36598E+01
   .61986E+01   .53303E+02  -.36596E+01
   .61987E+01   .52741E+02  -.49683E+01
   .61988E+01   .52135E+02  -.62771E+01
   .61989E+01   .50625E+02  -.36593E+01
   .61990E+01   .46659E+02  -.36592E+01
   .61991E+01   .38279E+02  -.36591E+01
   .61993E+01   .50926E+02  -.48807E+02
   .61994E+01   .63340E+02  -.36588E+01
   .61996E+01   .53457E+02  -.36587E+01
   .61997E+01   .46509E+02  -.36586E+01
   .61998E+01   .50231E+02  -.23898E+02
   .62000E+01   .53562E+02  -.36583E+01
   .62000E+01   .52454E+02  -.36583E+01
   .62000E+01   .51673E+02  -.36583E+01
   .62000E+01   .50770E+02  -.86362E+01
   .62001E+01   .50501E+02  -.14444E+02
   .62002E+01   .50221E+02  -.90509E+01
   .62002E+01   .49271E+02  -.36581E+01
   .62004E+01   .51080E+02  -.20375E+02
   .62004E+01   .52252E+02  -.36579E+01
   .62004E+01   .53290E+02  -.36579E+01
   .62005E+01   .54425E+02  -.36578E+01
   .62006E+01   .52363E+02  -.73895E+01
   .62007E+01   .50113E+02  -.36576E+01
   .62007E+01   .48022E+02  -.36576E+01
   .62008E+01   .46398E+02  -.46537E+01
   .62009E+01   .44624E+02  -.69588E+01
   .62010E+01   .44905E+02  -.10386E+02
   .62011E+01   .45586E+02  -.10397E+02
   .62011E+01   .46574E+02  -.10396E+02
   .62012E+01   .46814E+02  -.10396E+02
   .62013E+01   .46978E+02  -.10396E+02
   .62014E+01   .47071E+02  -.10396E+02
   .62014E+01   .47139E+02  -.10396E+02
   .62015E+01   .47176E+02  -.10396E+02
   .62016E+01   .47201E+02  -.10395E+02
   .62017E+01   .47213E+02  -.10395E+02
   .62018E+01   .47213E+02  -.10395E+02
   .62019E+01   .47204E+02  -.10395E+02
   .62020E+01   .47188E+02  -.10394E+02
   .62021E+01   .47155E+02  -.10394E+02
   .62023E+01   .47118E+02  -.10394E+02
   .62024E+01   .47091E+02  -.10393E+02
   .62025E+01   .47063E+02  -.10393E+02
   .62027E+01   .47007E+02  -.10393E+02
   .62030E+01   .46924E+02  -.10392E+02
   .62032E+01   .46871E+02  -.10392E+02
   .62035E+01   .46796E+02  -.10391E+02
   .62038E+01   .46727E+02  -.10390E+02
   .62040E+01   .46685E+02  -.10390E+02
   .62043E+01   .46625E+02  -.10389E+02
   .62045E+01   .46589E+02  -.10388E+02
   .62047E+01   .46556E+02  -.10388E+02
   .62050E+01   .46510E+02  -.10387E+02
   .62055E+01   .46444E+02  -.10386E+02
   .62060E+01   .46390E+02  -.10385E+02
   .62065E+01   .46345E+02  -.10384E+02
   .62070E+01   .46309E+02  -.10382E+02
   .62075E+01   .46280E+02  -.10381E+02
   .62080E+01   .46257E+02  -.10380E+02
   .62085E+01   .46240E+02  -.10379E+02
   .62090E+01   .46228E+02  -.10378E+02
   .62100E+01   .46214E+02  -.10375E+02
   .62110E+01   .46212E+02  -.10373E+02
   .62120E+01   .46220E+02  -.10370E+02
   .62128E+01   .46231E+02  -.10369E+02
   .62135E+01   .46244E+02  -.10367E+02
   .62143E+01   .46262E+02  -.10365E+02
   .62150E+01   .46279E+02  -.10363E+02
   .62160E+01   .46307E+02  -.10361E+02
   .62170E+01   .46338E+02  -.10358E+02
   .62180E+01   .46370E+02  -.10356E+02
   .62190E+01   .46403E+02  -.10354E+02
   .62210E+01   .46474E+02  -.10349E+02
   .62230E+01   .46546E+02  -.10344E+02
   .62250E+01   .46620E+02  -.10340E+02
   .62270E+01   .46693E+02  -.10335E+02
   .62285E+01   .46748E+02  -.10331E+02
   .62300E+01   .46802E+02  -.10328E+02
   .62330E+01   .46908E+02  -.10321E+02
   .62350E+01   .46977E+02  -.10316E+02
   .62380E+01   .47078E+02  -.10309E+02
   .62400E+01   .47143E+02  -.10304E+02
   .62430E+01   .47238E+02  -.10297E+02
   .62450E+01   .47299E+02  -.10292E+02
   .62480E+01   .47388E+02  -.10285E+02
   .62500E+01   .47446E+02  -.10280E+02
   .62550E+01   .47583E+02  -.10269E+02
   .62600E+01   .47712E+02  -.10257E+02
   .62650E+01   .47834E+02  -.10245E+02
   .62700E+01   .47949E+02  -.10233E+02
   .62780E+01   .48119E+02  -.10215E+02
   .62850E+01   .48256E+02  -.10199E+02
   .62930E+01   .48402E+02  -.10181E+02
   .63000E+01   .48520E+02  -.10165E+02
   .63050E+01   .48600E+02  -.10154E+02
   .63100E+01   .48676E+02  -.10143E+02
   .63150E+01   .48749E+02  -.10132E+02
   .63200E+01   .48819E+02  -.10121E+02
   .63280E+01   .48925E+02  -.10103E+02
   .63350E+01   .49012E+02  -.10088E+02
   .63430E+01   .49105E+02  -.10070E+02
   .63500E+01   .49183E+02  -.10055E+02
   .63580E+01   .49266E+02  -.10037E+02
   .63650E+01   .49335E+02  -.10021E+02
   .63800E+01   .49470E+02  -.99866E+01
   .63920E+01   .49567E+02  -.99593E+01
   .64038E+01   .49654E+02  -.99324E+01
   .64100E+01   .49696E+02  -.99180E+01
   .64170E+01   .49742E+02  -.99017E+01
   .64300E+01   .49821E+02  -.98714E+01
   .64450E+01   .49900E+02  -.98346E+01
   .64530E+01   .49937E+02  -.98149E+01
   .64601E+01   .49967E+02  -.97975E+01
   .64800E+01   .50038E+02  -.97512E+01
   .65000E+01   .50090E+02  -.97046E+01
   .65150E+01   .50117E+02  -.96697E+01
   .65300E+01   .50131E+02  -.96348E+01
   .65450E+01   .50134E+02  -.95999E+01
   .65600E+01   .50124E+02  -.95650E+01
   .65750E+01   .50098E+02  -.95301E+01
   .65900E+01   .50056E+02  -.94952E+01
   .66050E+01   .49994E+02  -.94603E+01
   .66130E+01   .49951E+02  -.94416E+01
   .66200E+01   .49907E+02  -.94254E+01
   .66280E+01   .49847E+02  -.94067E+01
   .66350E+01   .49787E+02  -.93904E+01
   .66420E+01   .49716E+02  -.93741E+01
   .66500E+01   .49621E+02  -.93555E+01
   .66580E+01   .49508E+02  -.93369E+01
   .66650E+01   .49388E+02  -.93206E+01
   .66730E+01   .49222E+02  -.93020E+01
   .66770E+01   .49123E+02  -.92927E+01
   .66800E+01   .49040E+02  -.92857E+01
   .66850E+01   .48882E+02  -.92741E+01
   .66900E+01   .48690E+02  -.92624E+01
   .66930E+01   .48554E+02  -.92554E+01
   .66950E+01   .48452E+02  -.92508E+01
   .66970E+01   .48339E+02  -.92461E+01
   .67000E+01   .48143E+02  -.92392E+01
   .67030E+01   .47906E+02  -.92322E+01
   .67050E+01   .47717E+02  -.92275E+01
   .67080E+01   .47367E+02  -.92205E+01
   .67100E+01   .47070E+02  -.92159E+01
   .67115E+01   .46797E+02  -.92124E+01
   .67130E+01   .46463E+02  -.92089E+01
   .67140E+01   .46195E+02  -.92066E+01
   .67150E+01   .45875E+02  -.92042E+01
   .67160E+01   .45485E+02  -.92019E+01
   .67170E+01   .44992E+02  -.91996E+01
   .67183E+01   .44090E+02  -.91966E+01
   .67196E+01   .41382E+02  -.91936E+01
   .67197E+01   .42043E+02  -.11805E+02
   .67197E+01   .42812E+02  -.14417E+02
   .67199E+01   .44230E+02  -.91930E+01
   .67208E+01   .41157E+02  -.91909E+01
   .67213E+01   .39720E+02  -.91898E+01
   .67218E+01   .37778E+02  -.91887E+01
   .67222E+01   .35210E+02  -.91877E+01
   .67227E+01   .29777E+02  -.91866E+01
   .67232E+01   .15953E+02  -.91855E+01
   .67237E+01  -.92194E+02  -.91844E+01
   .67238E+01   .46528E+02  -.45975E+03
   .67240E+01   .18525E+03  -.91838E+01
   .67242E+01   .98853E+02  -.91833E+01
   .67245E+01   .75160E+02  -.91826E+01
   .67247E+01   .68356E+02  -.91822E+01
   .67250E+01   .62538E+02  -.91816E+01
   .67252E+01   .59764E+02  -.91811E+01
   .67255E+01   .56838E+02  -.91804E+01
   .67258E+01   .54500E+02  -.91798E+01
   .67260E+01   .52835E+02  -.91793E+01
   .67261E+01   .52431E+02  -.96052E+01
   .67262E+01   .52004E+02  -.10031E+02
   .67263E+01   .50894E+02  -.91787E+01
   .67264E+01   .49133E+02  -.91784E+01
   .67265E+01   .46047E+02  -.91782E+01
   .67266E+01   .51462E+02  -.29110E+02
   .67268E+01   .56798E+02  -.91776E+01
   .67269E+01   .54267E+02  -.91774E+01
   .67269E+01   .52476E+02  -.91773E+01
   .67270E+01   .51105E+02  -.91771E+01
   .67271E+01   .49283E+02  -.91769E+01
   .67271E+01   .49939E+02  -.13293E+02
   .67272E+01   .50697E+02  -.18094E+02
   .67274E+01   .51796E+02  -.91763E+01
   .67274E+01   .50732E+02  -.91763E+01
   .67274E+01   .49701E+02  -.91762E+01
   .67275E+01   .49576E+02  -.91761E+01
   .67275E+01   .49634E+02  -.16888E+02
   .67276E+01   .49778E+02  -.10186E+02
   .67277E+01   .49868E+02  -.10944E+02
   .67277E+01   .49598E+02  -.11072E+02
   .67278E+01   .50813E+02  -.18754E+02
   .67280E+01   .53068E+02  -.12434E+02
   .67281E+01   .52071E+02  -.12434E+02
   .67282E+01   .51666E+02  -.12434E+02
   .67283E+01   .51514E+02  -.12434E+02
   .67284E+01   .51379E+02  -.12434E+02
   .67284E+01   .51283E+02  -.12434E+02
   .67285E+01   .51190E+02  -.12434E+02
   .67286E+01   .51092E+02  -.12434E+02
   .67287E+01   .51007E+02  -.12434E+02
   .67288E+01   .50898E+02  -.12434E+02
   .67290E+01   .50805E+02  -.12434E+02
   .67291E+01   .50750E+02  -.12434E+02
   .67292E+01   .50700E+02  -.12433E+02
   .67294E+01   .50630E+02  -.12433E+02
   .67295E+01   .50567E+02  -.12433E+02
   .67297E+01   .50509E+02  -.12433E+02
   .67298E+01   .50456E+02  -.12433E+02
   .67300E+01   .50392E+02  -.12433E+02
   .67304E+01   .50281E+02  -.12432E+02
   .67308E+01   .50189E+02  -.12432E+02
   .67311E+01   .50130E+02  -.12432E+02
   .67315E+01   .50061E+02  -.12432E+02
   .67318E+01   .50017E+02  -.12431E+02
   .67322E+01   .49965E+02  -.12431E+02
   .67326E+01   .49920E+02  -.12431E+02
   .67330E+01   .49881E+02  -.12431E+02
   .67338E+01   .49819E+02  -.12430E+02
   .67345E+01   .49778E+02  -.12429E+02
   .67353E+01   .49742E+02  -.12429E+02
   .67360E+01   .49719E+02  -.12428E+02
   .67368E+01   .49700E+02  -.12427E+02
   .67375E+01   .49688E+02  -.12427E+02
   .67383E+01   .49680E+02  -.12426E+02
   .67390E+01   .49676E+02  -.12426E+02
   .67405E+01   .49676E+02  -.12425E+02
   .67420E+01   .49684E+02  -.12424E+02
   .67435E+01   .49698E+02  -.12422E+02
   .67450E+01   .49717E+02  -.12421E+02
   .67465E+01   .49739E+02  -.12420E+02
   .67480E+01   .49763E+02  -.12419E+02
   .67500E+01   .49797E+02  -.12417E+02
   .67530E+01   .49852E+02  -.12415E+02
   .67550E+01   .49889E+02  -.12413E+02
   .67580E+01   .49947E+02  -.12411E+02
   .67600E+01   .49985E+02  -.12410E+02
   .67630E+01   .50042E+02  -.12408E+02
   .67650E+01   .50080E+02  -.12406E+02
   .67700E+01   .50174E+02  -.12402E+02
   .67750E+01   .50267E+02  -.12393E+02
   .67800E+01   .50358E+02  -.12385E+02
   .67850E+01   .50443E+02  -.12376E+02
   .67900E+01   .50525E+02  -.12367E+02
   .67980E+01   .50648E+02  -.12345E+02
   .68050E+01   .50744E+02  -.12326E+02
   .68130E+01   .50846E+02  -.12304E+02
   .68200E+01   .50931E+02  -.12285E+02
   .68250E+01   .50990E+02  -.12271E+02
   .68300E+01   .51046E+02  -.12258E+02
   .68400E+01   .51152E+02  -.12232E+02
   .68500E+01   .51250E+02  -.12206E+02
   .68600E+01   .51343E+02  -.12179E+02
   .68700E+01   .51429E+02  -.12152E+02
   .68800E+01   .51508E+02  -.12125E+02
   .68950E+01   .51617E+02  -.12084E+02
   .69092E+01   .51710E+02  -.12046E+02
   .69150E+01   .51745E+02  -.12030E+02
   .69200E+01   .51774E+02  -.12016E+02
   .69300E+01   .51829E+02  -.11988E+02
   .69400E+01   .51879E+02  -.11961E+02
   .69500E+01   .51923E+02  -.11933E+02
   .69600E+01   .51962E+02  -.11906E+02
   .69700E+01   .51995E+02  -.11878E+02
   .69850E+01   .52032E+02  -.11836E+02
   .70000E+01   .52054E+02  -.11794E+02
   .70100E+01   .52057E+02  -.11767E+02
   .70150E+01   .52055E+02  -.11753E+02
   .70200E+01   .52050E+02  -.11740E+02
   .70280E+01   .52035E+02  -.11718E+02
   .70350E+01   .52013E+02  -.11699E+02
   .70430E+01   .51976E+02  -.11678E+02
   .70500E+01   .51929E+02  -.11659E+02
   .70550E+01   .51885E+02  -.11645E+02
   .70600E+01   .51828E+02  -.11632E+02
   .70630E+01   .51787E+02  -.11623E+02
   .70650E+01   .51755E+02  -.11618E+02
   .70680E+01   .51701E+02  -.11610E+02
   .70700E+01   .51659E+02  -.11604E+02
   .70720E+01   .51611E+02  -.11599E+02
   .70750E+01   .51525E+02  -.11591E+02
   .70780E+01   .51415E+02  -.11583E+02
   .70790E+01   .51371E+02  -.11580E+02
   .70800E+01   .51323E+02  -.11577E+02
   .70815E+01   .51239E+02  -.11573E+02
   .70830E+01   .51138E+02  -.11569E+02
   .70840E+01   .51056E+02  -.11567E+02
   .70850E+01   .50960E+02  -.11564E+02
   .70858E+01   .50867E+02  -.11562E+02
   .70865E+01   .50771E+02  -.11560E+02
   .70872E+01   .50655E+02  -.11558E+02
   .70880E+01   .50486E+02  -.11556E+02
   .70886E+01   .50318E+02  -.11554E+02
   .70892E+01   .50087E+02  -.11552E+02
   .70898E+01   .49718E+02  -.11551E+02
   .70904E+01   .48493E+02  -.11549E+02
   .70905E+01   .48900E+02  -.13216E+02
   .70905E+01   .49304E+02  -.14674E+02
   .70907E+01   .50085E+02  -.11549E+02
   .70911E+01   .48131E+02  -.11547E+02
   .70916E+01   .39667E+02  -.11546E+02
   .70918E+01   .50003E+02  -.44951E+02
   .70919E+01   .60389E+02  -.11545E+02
   .70922E+01   .53425E+02  -.11545E+02
   .70925E+01   .51544E+02  -.11544E+02
   .70927E+01   .50987E+02  -.11543E+02
   .70928E+01   .50417E+02  -.11543E+02
   .70930E+01   .49225E+02  -.11542E+02
   .70931E+01   .47481E+02  -.11542E+02
   .70932E+01   .48926E+02  -.16749E+02
   .70933E+01   .50392E+02  -.21956E+02
   .70934E+01   .53321E+02  -.11541E+02
   .70935E+01   .51409E+02  -.11541E+02
   .70937E+01   .49873E+02  -.11541E+02
   .70937E+01   .50162E+02  -.13671E+02
   .70938E+01   .50570E+02  -.16106E+02
   .70939E+01   .50875E+02  -.13823E+02
   .70939E+01   .51047E+02  -.11540E+02
   .70940E+01   .50460E+02  -.11540E+02
   .70940E+01   .49862E+02  -.11540E+02
   .70941E+01   .49902E+02  -.11540E+02
   .70942E+01   .50155E+02  -.16530E+02
   .70942E+01   .50323E+02  -.12174E+02
   .70943E+01   .50596E+02  -.12537E+02
   .70943E+01   .50759E+02  -.12626E+02
   .70943E+01   .51033E+02  -.12716E+02
   .70944E+01   .51064E+02  -.15304E+02
   .70946E+01   .51751E+02  -.13358E+02
   .70946E+01   .51562E+02  -.13357E+02
   .70947E+01   .51460E+02  -.13356E+02
   .70948E+01   .51380E+02  -.13355E+02
   .70949E+01   .51334E+02  -.13354E+02
   .70950E+01   .51307E+02  -.13352E+02
   .70951E+01   .51291E+02  -.13351E+02
   .70952E+01   .51280E+02  -.13350E+02
   .70953E+01   .51275E+02  -.13349E+02
   .70954E+01   .51271E+02  -.13347E+02
   .70956E+01   .51272E+02  -.13345E+02
   .70958E+01   .51278E+02  -.13343E+02
   .70960E+01   .51287E+02  -.13341E+02
   .70963E+01   .51303E+02  -.13337E+02
   .70965E+01   .51315E+02  -.13335E+02
   .70967E+01   .51327E+02  -.13332E+02
   .70970E+01   .51347E+02  -.13329E+02
   .70972E+01   .51360E+02  -.13326E+02
   .70975E+01   .51380E+02  -.13323E+02
   .70980E+01   .51412E+02  -.13317E+02
   .70984E+01   .51437E+02  -.13313E+02
   .70988E+01   .51462E+02  -.13309E+02
   .70995E+01   .51503E+02  -.13301E+02
   .71003E+01   .51547E+02  -.13293E+02
   .71010E+01   .51583E+02  -.13286E+02
   .71018E+01   .51621E+02  -.13280E+02
   .71025E+01   .51653E+02  -.13275E+02
   .71033E+01   .51687E+02  -.13269E+02
   .71040E+01   .51715E+02  -.13264E+02
   .71055E+01   .51772E+02  -.13257E+02
   .71070E+01   .51823E+02  -.13251E+02
   .71090E+01   .51887E+02  -.13247E+02
   .71110E+01   .51947E+02  -.13243E+02
   .71125E+01   .51989E+02  -.13242E+02
   .71140E+01   .52031E+02  -.13241E+02
   .71170E+01   .52109E+02  -.13240E+02
   .71200E+01   .52186E+02  -.13238E+02
   .71240E+01   .52280E+02  -.13230E+02
   .71280E+01   .52365E+02  -.13222E+02
   .71320E+01   .52445E+02  -.13214E+02
   .71350E+01   .52504E+02  -.13208E+02
   .71390E+01   .52577E+02  -.13194E+02
   .71420E+01   .52627E+02  -.13184E+02
   .71460E+01   .52690E+02  -.13170E+02
   .71500E+01   .52749E+02  -.13157E+02
   .71550E+01   .52819E+02  -.13143E+02
   .71600E+01   .52885E+02  -.13130E+02
   .71650E+01   .52949E+02  -.13116E+02
   .71700E+01   .53011E+02  -.13102E+02
   .71780E+01   .53104E+02  -.13081E+02
   .71850E+01   .53182E+02  -.13062E+02
   .71930E+01   .53266E+02  -.13041E+02
   .72000E+01   .53337E+02  -.13022E+02
   .72100E+01   .53434E+02  -.12995E+02
   .72200E+01   .53526E+02  -.12968E+02
   .72350E+01   .53656E+02  -.12928E+02
   .72500E+01   .53778E+02  -.12887E+02
   .72650E+01   .53894E+02  -.12848E+02
   .72800E+01   .54004E+02  -.12809E+02
   .72900E+01   .54075E+02  -.12783E+02
   .73000E+01   .54145E+02  -.12757E+02
   .73300E+01   .54341E+02  -.12678E+02
   .73500E+01   .54464E+02  -.12626E+02
   .73700E+01   .54582E+02  -.12574E+02
   .74000E+01   .54749E+02  -.12496E+02
   .74200E+01   .54856E+02  -.12444E+02
   .74500E+01   .55007E+02  -.12367E+02
   .74700E+01   .55103E+02  -.12315E+02
   .75000E+01   .55240E+02  -.12238E+02
   .75300E+01   .55371E+02  -.12165E+02
   .75500E+01   .55455E+02  -.12117E+02
   .75700E+01   .55537E+02  -.12069E+02
   .75900E+01   .55617E+02  -.12020E+02
   .76100E+01   .55694E+02  -.11972E+02
   .76500E+01   .55843E+02  -.11875E+02
   .76800E+01   .55951E+02  -.11807E+02
   .77200E+01   .56088E+02  -.11715E+02
   .77600E+01   .56219E+02  -.11623E+02
   .78000E+01   .56345E+02  -.11531E+02
   .78300E+01   .56436E+02  -.11462E+02
   .78500E+01   .56495E+02  -.11417E+02
   .78700E+01   .56552E+02  -.11372E+02
   .79000E+01   .56636E+02  -.11304E+02
   .79200E+01   .56690E+02  -.11259E+02
   .79500E+01   .56769E+02  -.11194E+02
   .79700E+01   .56821E+02  -.11150E+02
   .80000E+01   .56896E+02  -.11084E+02
   .80100E+01   .56921E+02  -.11062E+02
   .80200E+01   .56945E+02  -.11040E+02
   .80340E+01   .56979E+02  -.11010E+02
   .80410E+01   .56995E+02  -.10995E+02
   .80478E+01   .57012E+02  -.10981E+02
   .80800E+01   .57086E+02  -.10913E+02
   .81100E+01   .57153E+02  -.10850E+02
   .81400E+01   .57219E+02  -.10787E+02
   .81700E+01   .57283E+02  -.10724E+02
   .82000E+01   .57345E+02  -.10663E+02
   .82400E+01   .57424E+02  -.10582E+02
   .82700E+01   .57483E+02  -.10522E+02
   .83000E+01   .57540E+02  -.10461E+02
   .83200E+01   .57577E+02  -.10422E+02
   .83500E+01   .57631E+02  -.10363E+02
   .84000E+01   .57718E+02  -.10265E+02
   .84500E+01   .57802E+02  -.10170E+02
   .84700E+01   .57834E+02  -.10132E+02
   .85000E+01   .57882E+02  -.10075E+02
   .85300E+01   .57929E+02  -.10019E+02
   .85700E+01   .57989E+02  -.99460E+01
   .86100E+01   .58048E+02  -.98724E+01
   .86500E+01   .58104E+02  -.97989E+01
   .86800E+01   .58146E+02  -.97461E+01
   .87200E+01   .58199E+02  -.96758E+01
   .87600E+01   .58251E+02  -.96055E+01
   .88000E+01   .58301E+02  -.95352E+01
   .88200E+01   .58326E+02  -.95013E+01
   .88500E+01   .58362E+02  -.94504E+01
   .89000E+01   .58421E+02  -.93657E+01
   .89500E+01   .58478E+02  -.92834E+01
   .89700E+01   .58500E+02  -.92505E+01
   .90000E+01   .58533E+02  -.92011E+01
   .90300E+01   .58565E+02  -.91528E+01
   .90700E+01   .58607E+02  -.90885E+01
   .91100E+01   .58647E+02  -.90241E+01
   .91500E+01   .58686E+02  -.89597E+01
   .91800E+01   .58715E+02  -.89134E+01
   .92200E+01   .58752E+02  -.88517E+01
   .92600E+01   .58788E+02  -.87900E+01
   .93000E+01   .58822E+02  -.87283E+01
   .93200E+01   .58840E+02  -.86986E+01
   .93500E+01   .58865E+02  -.86539E+01
   .94000E+01   .58906E+02  -.85794E+01
   .94500E+01   .58945E+02  -.85070E+01
   .94700E+01   .58961E+02  -.84781E+01
   .95000E+01   .58984E+02  -.84346E+01
   .95300E+01   .59007E+02  -.83922E+01
   .95700E+01   .59036E+02  -.83355E+01
   .96100E+01   .59064E+02  -.82789E+01
   .96500E+01   .59091E+02  -.82223E+01
   .96800E+01   .59111E+02  -.81815E+01
   .97200E+01   .59137E+02  -.81271E+01
   .97600E+01   .59162E+02  -.80728E+01
   .98000E+01   .59187E+02  -.80184E+01
   .98200E+01   .59199E+02  -.79921E+01
   .98500E+01   .59217E+02  -.79527E+01
   .99000E+01   .59245E+02  -.78870E+01
   .99500E+01   .59273E+02  -.78230E+01
   .99700E+01   .59284E+02  -.77974E+01
   .10000E+02   .59300E+02  -.77590E+01
   .10030E+02   .59316E+02  -.77217E+01
   .10070E+02   .59336E+02  -.76719E+01
   .10110E+02   .59356E+02  -.76221E+01
   .10150E+02   .59375E+02  -.75724E+01
   .10180E+02   .59389E+02  -.75365E+01
   .10220E+02   .59407E+02  -.74887E+01
   .10260E+02   .59425E+02  -.74408E+01
   .10300E+02   .59443E+02  -.73930E+01
   .10340E+02   .59459E+02  -.73469E+01
   .10380E+02   .59476E+02  -.73008E+01
   .10410E+02   .59488E+02  -.72663E+01
   .10450E+02   .59503E+02  -.72203E+01
   .10490E+02   .59518E+02  -.71759E+01
   .10530E+02   .59533E+02  -.71316E+01
   .10570E+02   .59548E+02  -.70873E+01
   .10600E+02   .59558E+02  -.70540E+01
   .10640E+02   .59572E+02  -.70113E+01
   .10680E+02   .59585E+02  -.69686E+01
   .10710E+02   .59595E+02  -.69365E+01
   .10750E+02   .59607E+02  -.68938E+01
   .10790E+02   .59619E+02  -.68527E+01
   .10830E+02   .59631E+02  -.68117E+01
   .10870E+02   .59643E+02  -.67706E+01
   .10900E+02   .59652E+02  -.67399E+01
   .10950E+02   .59665E+02  -.66908E+01
   .11000E+02   .59679E+02  -.66416E+01
   .11050E+02   .59692E+02  -.65925E+01
   .11100E+02   .59705E+02  -.65434E+01
   .11130E+02   .59712E+02  -.65150E+01
   .11160E+02   .59719E+02  -.64867E+01
   .11190E+02   .59727E+02  -.64583E+01
   .11220E+02   .59734E+02  -.64299E+01
   .11290E+02   .59749E+02  -.63667E+01
   .11360E+02   .59765E+02  -.63035E+01
   .11430E+02   .59779E+02  -.62403E+01
   .11500E+02   .59794E+02  -.61772E+01
   .11550E+02   .59804E+02  -.61338E+01
   .11600E+02   .59813E+02  -.60904E+01
   .11650E+02   .59822E+02  -.60471E+01
   .11700E+02   .59830E+02  -.60037E+01
   .11750E+02   .59839E+02  -.59623E+01
   .11800E+02   .59847E+02  -.59208E+01
   .11850E+02   .59854E+02  -.58794E+01
   .11900E+02   .59861E+02  -.58380E+01
   .12000E+02   .59875E+02  -.57587E+01
   .12100E+02   .59888E+02  -.56795E+01
   .12180E+02   .59898E+02  -.56191E+01
   .12250E+02   .59906E+02  -.55663E+01
   .12330E+02   .59915E+02  -.55060E+01
   .12400E+02   .59922E+02  -.54532E+01
   .12450E+02   .59927E+02  -.54171E+01
   .12500E+02   .59931E+02  -.53810E+01
   .12600E+02   .59940E+02  -.53088E+01
   .12700E+02   .59947E+02  -.52396E+01
   .12800E+02   .59954E+02  -.51704E+01
   .12900E+02   .59960E+02  -.51041E+01
   .13000E+02   .59965E+02  -.50377E+01
   .13070E+02   .59968E+02  -.49934E+01
   .13150E+02   .59972E+02  -.49428E+01
   .13220E+02   .59974E+02  -.48985E+01
   .13300E+02   .59977E+02  -.48479E+01
   .13400E+02   .59980E+02  -.47878E+01
   .13500E+02   .59982E+02  -.47276E+01
   .13650E+02   .59985E+02  -.46418E+01
   .13800E+02   .59986E+02  -.45559E+01
   .13900E+02   .59987E+02  -.45014E+01
   .14000E+02   .59987E+02  -.44469E+01
   .14150E+02   .59987E+02  -.43689E+01
   .14300E+02   .59986E+02  -.42908E+01
   .14400E+02   .59985E+02  -.42412E+01
   .14500E+02   .59984E+02  -.41915E+01
   .14650E+02   .59981E+02  -.41201E+01
   .14800E+02   .59978E+02  -.40487E+01
   .15000E+02   .59974E+02  -.39578E+01
   .15150E+02   .59970E+02  -.38910E+01
   .15300E+02   .59965E+02  -.38260E+01
   .15450E+02   .59960E+02  -.37636E+01
   .15600E+02   .59954E+02  -.37011E+01
   .15750E+02   .59948E+02  -.36416E+01
   .15900E+02   .59942E+02  -.35822E+01
   .16050E+02   .59935E+02  -.35255E+01
   .16200E+02   .59928E+02  -.34688E+01
   .16500E+02   .59913E+02  -.33609E+01
   .16800E+02   .59897E+02  -.32581E+01
   .17100E+02   .59880E+02  -.31601E+01
   .17479E+02   .59857E+02  -.30429E+01
   .17800E+02   .59838E+02  -.29489E+01
   .18100E+02   .59819E+02  -.28651E+01
   .18400E+02   .59800E+02  -.27848E+01
   .18700E+02   .59780E+02  -.27081E+01
   .19100E+02   .59754E+02  -.26107E+01
   .19400E+02   .59735E+02  -.25408E+01
   .19700E+02   .59715E+02  -.24738E+01
   .20000E+02   .59695E+02  -.24095E+01
   .20300E+02   .59674E+02  -.23474E+01
   .20600E+02   .59654E+02  -.22877E+01
   .20900E+02   .59634E+02  -.22304E+01
   .21100E+02   .59620E+02  -.21934E+01
   .21400E+02   .59599E+02  -.21397E+01
   .21600E+02   .59586E+02  -.21051E+01
   .21900E+02   .59565E+02  -.20547E+01
   .22163E+02   .59547E+02  -.20121E+01
   .22600E+02   .59518E+02  -.19443E+01
   .23100E+02   .59484E+02  -.18709E+01
   .23600E+02   .59450E+02  -.18013E+01
   .24000E+02   .59423E+02  -.17484E+01
   .24400E+02   .59396E+02  -.16979E+01
   .24700E+02   .59376E+02  -.16616E+01
   .25000E+02   .59355E+02  -.16264E+01
   .25347E+02   .59332E+02  -.15869E+01
   .25600E+02   .59315E+02  -.15591E+01
   .25900E+02   .59295E+02  -.15272E+01
   .26100E+02   .59281E+02  -.15064E+01
   .26400E+02   .59261E+02  -.14761E+01
   .26900E+02   .59227E+02  -.14276E+01
   .27200E+02   .59207E+02  -.13997E+01
   .27470E+02   .59189E+02  -.13753E+01
   .27800E+02   .59167E+02  -.13463E+01
   .28100E+02   .59146E+02  -.13208E+01
   .28400E+02   .59126E+02  -.12960E+01
   .28700E+02   .59105E+02  -.12718E+01
   .29100E+02   .59078E+02  -.12407E+01
   .29400E+02   .59057E+02  -.12182E+01
   .29700E+02   .59036E+02  -.11963E+01
   .30000E+02   .59015E+02  -.11750E+01
   .30400E+02   .58987E+02  -.11473E+01
   .30800E+02   .58958E+02  -.11206E+01
   .31200E+02   .58929E+02  -.10949E+01
   .31500E+02   .58907E+02  -.10762E+01
   .31900E+02   .58877E+02  -.10520E+01
   .32300E+02   .58847E+02  -.10287E+01
   .32600E+02   .58824E+02  -.10117E+01
   .33000E+02   .58792E+02  -.98978E+00
   .33400E+02   .58759E+02  -.96849E+00
   .33800E+02   .58726E+02  -.94791E+00
   .34100E+02   .58701E+02  -.93292E+00
   .34500E+02   .58666E+02  -.91350E+00
   .34900E+02   .58629E+02  -.89469E+00
   .35300E+02   .58592E+02  -.87643E+00
   .35700E+02   .58553E+02  -.85871E+00
   .36030E+02   .58519E+02  -.84451E+00
   .36300E+02   .58491E+02  -.83325E+00
   .36500E+02   .58469E+02  -.82491E+00
   .36800E+02   .58435E+02  -.81286E+00
   .37000E+02   .58412E+02  -.80482E+00
   .37300E+02   .58376E+02  -.79322E+00
   .37500E+02   .58352E+02  -.78548E+00
   .37800E+02   .58313E+02  -.77431E+00
   .38000E+02   .58286E+02  -.76686E+00
   .38300E+02   .58244E+02  -.75608E+00
   .38500E+02   .58214E+02  -.74890E+00
   .38800E+02   .58168E+02  -.73852E+00
   .39000E+02   .58135E+02  -.73160E+00
   .39300E+02   .58083E+02  -.72158E+00
   .39500E+02   .58047E+02  -.71490E+00
   .39800E+02   .57988E+02  -.70524E+00
   .39900E+02   .57968E+02  -.70201E+00
   .40000E+02   .57947E+02  -.69879E+00
   .40150E+02   .57914E+02  -.69409E+00
   .40300E+02   .57880E+02  -.68939E+00
   .40400E+02   .57856E+02  -.68626E+00
   .40500E+02   .57831E+02  -.68313E+00
   .40650E+02   .57792E+02  -.67859E+00
   .40800E+02   .57752E+02  -.67405E+00
   .40900E+02   .57723E+02  -.67102E+00
   .41000E+02   .57694E+02  -.66799E+00
   .41150E+02   .57647E+02  -.66361E+00
   .41300E+02   .57597E+02  -.65922E+00
   .41400E+02   .57562E+02  -.65630E+00
   .41500E+02   .57525E+02  -.65338E+00
   .41570E+02   .57498E+02  -.65140E+00
   .41650E+02   .57466E+02  -.64914E+00
   .41720E+02   .57437E+02  -.64716E+00
   .41800E+02   .57402E+02  -.64490E+00
   .41900E+02   .57356E+02  -.64208E+00
   .42000E+02   .57308E+02  -.63925E+00
   .42100E+02   .57256E+02  -.63651E+00
   .42200E+02   .57200E+02  -.63377E+00
   .42300E+02   .57139E+02  -.63103E+00
   .42350E+02   .57107E+02  -.62966E+00
   .42400E+02   .57074E+02  -.62830E+00
   .42450E+02   .57039E+02  -.62696E+00
   .42500E+02   .57002E+02  -.62563E+00
   .42550E+02   .56964E+02  -.62429E+00
   .42600E+02   .56924E+02  -.62296E+00
   .42650E+02   .56881E+02  -.62163E+00
   .42700E+02   .56836E+02  -.62029E+00
   .42750E+02   .56789E+02  -.61896E+00
   .42800E+02   .56738E+02  -.61763E+00
   .42850E+02   .56684E+02  -.61635E+00
   .42900E+02   .56626E+02  -.61506E+00
   .42950E+02   .56564E+02  -.61378E+00
   .43000E+02   .56496E+02  -.61250E+00
   .43020E+02   .56467E+02  -.61199E+00
   .43050E+02   .56422E+02  -.61122E+00
   .43070E+02   .56391E+02  -.61071E+00
   .43100E+02   .56341E+02  -.60994E+00
   .43120E+02   .56306E+02  -.60942E+00
   .43150E+02   .56251E+02  -.60865E+00
   .43170E+02   .56213E+02  -.60814E+00
   .43200E+02   .56151E+02  -.60737E+00
   .43230E+02   .56084E+02  -.60660E+00
   .43250E+02   .56036E+02  -.60609E+00
   .43270E+02   .55985E+02  -.60558E+00
   .43300E+02   .55903E+02  -.60481E+00
   .43320E+02   .55843E+02  -.60430E+00
   .43335E+02   .55795E+02  -.60391E+00
   .43350E+02   .55745E+02  -.60353E+00
   .43365E+02   .55691E+02  -.60314E+00
   .43380E+02   .55634E+02  -.60276E+00
   .43390E+02   .55593E+02  -.60250E+00
   .43400E+02   .55551E+02  -.60225E+00
   .43415E+02   .55483E+02  -.60186E+00
   .43430E+02   .55409E+02  -.60148E+00
   .43440E+02   .55356E+02  -.60122E+00
   .43450E+02   .55299E+02  -.60096E+00
   .43458E+02   .55251E+02  -.60076E+00
   .43465E+02   .55207E+02  -.60058E+00
   .43473E+02   .55153E+02  -.60037E+00
   .43480E+02   .55104E+02  -.60019E+00
   .43490E+02   .55027E+02  -.59994E+00
   .43500E+02   .54943E+02  -.59968E+00
   .43505E+02   .54898E+02  -.59955E+00
   .43510E+02   .54851E+02  -.59943E+00
   .43515E+02   .54800E+02  -.59930E+00
   .43520E+02   .54747E+02  -.59917E+00
   .43528E+02   .54654E+02  -.59896E+00
   .43535E+02   .54564E+02  -.59878E+00
   .43539E+02   .54508E+02  -.59868E+00
   .43543E+02   .54448E+02  -.59858E+00
   .43547E+02   .54383E+02  -.59848E+00
   .43550E+02   .54332E+02  -.59840E+00
   .43554E+02   .54258E+02  -.59830E+00
   .43558E+02   .54178E+02  -.59820E+00
   .43562E+02   .54089E+02  -.59809E+00
   .43565E+02   .54016E+02  -.59802E+00
   .43569E+02   .53909E+02  -.59791E+00
   .43573E+02   .53786E+02  -.59781E+00
   .43575E+02   .53736E+02  -.59777E+00
   .43576E+02   .53682E+02  -.59773E+00
   .43578E+02   .53605E+02  -.59768E+00
   .43580E+02   .53520E+02  -.59763E+00
   .43582E+02   .53451E+02  -.59759E+00
   .43583E+02   .53376E+02  -.59755E+00
   .43584E+02   .53322E+02  -.59753E+00
   .43585E+02   .53265E+02  -.59750E+00
   .43586E+02   .53171E+02  -.59746E+00
   .43588E+02   .53066E+02  -.59743E+00
   .43589E+02   .52989E+02  -.59740E+00
   .43590E+02   .52904E+02  -.59737E+00
   .43591E+02   .52759E+02  -.59734E+00
   .43593E+02   .52586E+02  -.59730E+00
   .43594E+02   .52449E+02  -.59727E+00
   .43595E+02   .52372E+02  -.59726E+00
   .43595E+02   .52287E+02  -.59725E+00
   .43596E+02   .52133E+02  -.59723E+00
   .43597E+02   .51972E+02  -.59721E+00
   .43597E+02   .51745E+02  -.59719E+00
   .43598E+02   .51490E+02  -.59717E+00
   .43599E+02   .51202E+02  -.59715E+00
   .43599E+02   .50800E+02  -.59714E+00
   .43600E+02   .50166E+02  -.59712E+00
   .43600E+02   .48687E+02  -.59711E+00
   .43601E+02   .48987E+02  -.16431E+01
   .43601E+02   .49286E+02  -.26890E+01
   .43601E+02   .49881E+02  -.47810E+01
   .43601E+02   .51326E+02  -.10011E+02
   .43602E+02   .52372E+02  -.53039E+01
   .43602E+02   .53262E+02  -.59706E+00
   .43602E+02   .52948E+02  -.59706E+00
   .43603E+02   .52244E+02  -.59706E+00
   .43603E+02   .52265E+02  -.58437E+01
   .43604E+02   .52722E+02  -.10776E+01
   .43605E+02   .51695E+02  -.17458E+01
   .43605E+02   .51527E+02  -.25820E+01
   .43606E+02   .51598E+02  -.34631E+01
   .43606E+02   .51888E+02  -.34575E+01
   .43606E+02   .52299E+02  -.34507E+01
   .43607E+02   .52438E+02  -.34438E+01
   .43607E+02   .52544E+02  -.34369E+01
   .43608E+02   .52633E+02  -.34300E+01
   .43609E+02   .52708E+02  -.34236E+01
   .43609E+02   .52774E+02  -.34172E+01
   .43610E+02   .52834E+02  -.34108E+01
   .43610E+02   .52888E+02  -.34044E+01
   .43611E+02   .52938E+02  -.33991E+01
   .43611E+02   .52984E+02  -.33938E+01
   .43611E+02   .53026E+02  -.33890E+01
   .43612E+02   .53066E+02  -.33843E+01
   .43612E+02   .53103E+02  -.33813E+01
   .43613E+02   .53138E+02  -.33784E+01
   .43614E+02   .53204E+02  -.33725E+01
   .43615E+02   .53263E+02  -.33687E+01
   .43616E+02   .53316E+02  -.33649E+01
   .43617E+02   .53367E+02  -.33632E+01
   .43618E+02   .53414E+02  -.33615E+01
   .43619E+02   .53457E+02  -.33629E+01
   .43620E+02   .53499E+02  -.33643E+01
   .43621E+02   .53558E+02  -.33681E+01
   .43623E+02   .53615E+02  -.33719E+01
   .43624E+02   .53650E+02  -.33753E+01
   .43625E+02   .53685E+02  -.33788E+01
   .43628E+02   .53785E+02  -.33898E+01
   .43630E+02   .53848E+02  -.33972E+01
   .43633E+02   .53938E+02  -.34058E+01
   .43635E+02   .53994E+02  -.34104E+01
   .43638E+02   .54075E+02  -.34145E+01
   .43640E+02   .54126E+02  -.34156E+01
   .43642E+02   .54175E+02  -.34150E+01
   .43645E+02   .54242E+02  -.34141E+01
   .43648E+02   .54304E+02  -.34110E+01
   .43650E+02   .54343E+02  -.34090E+01
   .43653E+02   .54397E+02  -.34056E+01
   .43655E+02   .54431E+02  -.34033E+01
   .43658E+02   .54479E+02  -.34003E+01
   .43660E+02   .54509E+02  -.33983E+01
   .43665E+02   .54579E+02  -.33954E+01
   .43670E+02   .54643E+02  -.33946E+01
   .43675E+02   .54703E+02  -.33957E+01
   .43680E+02   .54761E+02  -.33968E+01
   .43685E+02   .54816E+02  -.33977E+01
   .43690E+02   .54869E+02  -.33987E+01
   .43695E+02   .54918E+02  -.33991E+01
   .43700E+02   .54966E+02  -.33994E+01
   .43705E+02   .55012E+02  -.33983E+01
   .43710E+02   .55055E+02  -.33971E+01
   .43715E+02   .55096E+02  -.33960E+01
   .43720E+02   .55134E+02  -.33949E+01
   .43727E+02   .55186E+02  -.33944E+01
   .43735E+02   .55240E+02  -.33939E+01
   .43743E+02   .55292E+02  -.33933E+01
   .43750E+02   .55336E+02  -.33929E+01
   .43760E+02   .55396E+02  -.33919E+01
   .43770E+02   .55451E+02  -.33909E+01
   .43780E+02   .55504E+02  -.33900E+01
   .43790E+02   .55553E+02  -.33890E+01
   .43800E+02   .55601E+02  -.33880E+01
   .43810E+02   .55646E+02  -.33871E+01
   .43820E+02   .55689E+02  -.33861E+01
   .43830E+02   .55730E+02  -.33851E+01
   .43845E+02   .55788E+02  -.33836E+01
   .43860E+02   .55843E+02  -.33820E+01
   .43880E+02   .55912E+02  -.33799E+01
   .43900E+02   .55976E+02  -.33779E+01
   .43920E+02   .56037E+02  -.33755E+01
   .43940E+02   .56093E+02  -.33732E+01
   .43960E+02   .56146E+02  -.33708E+01
   .43980E+02   .56196E+02  -.33685E+01
   .43995E+02   .56232E+02  -.33667E+01
   .44010E+02   .56266E+02  -.33649E+01
   .44050E+02   .56352E+02  -.33603E+01
   .44090E+02   .56432E+02  -.33564E+01
   .44130E+02   .56506E+02  -.33526E+01
   .44160E+02   .56559E+02  -.33497E+01
   .44200E+02   .56625E+02  -.33458E+01
   .44240E+02   .56687E+02  -.33408E+01
   .44270E+02   .56731E+02  -.33370E+01
   .44310E+02   .56786E+02  -.33320E+01
   .44350E+02   .56839E+02  -.33269E+01
   .44380E+02   .56876E+02  -.33230E+01
   .44420E+02   .56924E+02  -.33179E+01
   .44460E+02   .56968E+02  -.33127E+01
   .44500E+02   .57011E+02  -.33075E+01
   .44530E+02   .57042E+02  -.33043E+01
   .44570E+02   .57081E+02  -.33001E+01
   .44610E+02   .57119E+02  -.32958E+01
   .44650E+02   .57156E+02  -.32915E+01
   .44720E+02   .57218E+02  -.32848E+01
   .44800E+02   .57284E+02  -.32770E+01
   .44880E+02   .57347E+02  -.32681E+01
   .44950E+02   .57399E+02  -.32602E+01
   .45030E+02   .57458E+02  -.32513E+01
   .45100E+02   .57505E+02  -.32434E+01
   .45180E+02   .57557E+02  -.32345E+01
   .45250E+02   .57600E+02  -.32266E+01
   .45330E+02   .57647E+02  -.32177E+01
   .45400E+02   .57687E+02  -.32098E+01
   .45480E+02   .57729E+02  -.31999E+01
   .45550E+02   .57764E+02  -.31913E+01
   .45630E+02   .57803E+02  -.31814E+01
   .45700E+02   .57836E+02  -.31727E+01
   .45770E+02   .57868E+02  -.31644E+01
   .45850E+02   .57903E+02  -.31549E+01
   .45920E+02   .57932E+02  -.31466E+01
   .46000E+02   .57964E+02  -.31371E+01
   .46150E+02   .58021E+02  -.31214E+01
   .46300E+02   .58076E+02  -.31057E+01
   .46400E+02   .58111E+02  -.30953E+01
   .46500E+02   .58144E+02  -.30848E+01
   .46650E+02   .58192E+02  -.30702E+01
   .46800E+02   .58238E+02  -.30556E+01
   .46900E+02   .58268E+02  -.30458E+01
   .47000E+02   .58297E+02  -.30361E+01
   .47150E+02   .58339E+02  -.30214E+01
   .47300E+02   .58380E+02  -.30067E+01
   .47400E+02   .58405E+02  -.29969E+01
   .47500E+02   .58431E+02  -.29871E+01
   .47650E+02   .58467E+02  -.29724E+01
   .47800E+02   .58503E+02  -.29577E+01
   .47900E+02   .58526E+02  -.29479E+01
   .48000E+02   .58549E+02  -.29381E+01
   .48150E+02   .58581E+02  -.29233E+01
   .48300E+02   .58612E+02  -.29086E+01
   .48400E+02   .58632E+02  -.28988E+01
   .48500E+02   .58652E+02  -.28889E+01
   .48650E+02   .58681E+02  -.28742E+01
   .48800E+02   .58708E+02  -.28594E+01
   .48900E+02   .58726E+02  -.28496E+01
   .49000E+02   .58743E+02  -.28398E+01
   .49300E+02   .58794E+02  -.28111E+01
   .49400E+02   .58810E+02  -.28015E+01
   .49500E+02   .58826E+02  -.27919E+01
   .49650E+02   .58849E+02  -.27777E+01
   .49800E+02   .58871E+02  -.27635E+01
   .49900E+02   .58885E+02  -.27540E+01
   .50000E+02   .58899E+02  -.27445E+01
   .50300E+02   .58939E+02  -.27174E+01
   .50500E+02   .58965E+02  -.26993E+01
   .50800E+02   .59002E+02  -.26729E+01
   .51000E+02   .59026E+02  -.26553E+01
   .51300E+02   .59059E+02  -.26296E+01
   .51500E+02   .59080E+02  -.26124E+01
   .51800E+02   .59111E+02  -.25879E+01
   .52000E+02   .59131E+02  -.25716E+01
   .52300E+02   .59159E+02  -.25477E+01
   .52500E+02   .59178E+02  -.25317E+01
   .52800E+02   .59204E+02  -.25085E+01
   .53000E+02   .59221E+02  -.24929E+01
   .53300E+02   .59245E+02  -.24706E+01
   .53500E+02   .59261E+02  -.24558E+01
   .53800E+02   .59284E+02  -.24341E+01
   .54000E+02   .59299E+02  -.24196E+01
   .54300E+02   .59321E+02  -.23984E+01
   .54500E+02   .59335E+02  -.23843E+01
   .54800E+02   .59355E+02  -.23632E+01
   .55000E+02   .59368E+02  -.23491E+01
   .55300E+02   .59388E+02  -.23286E+01
   .55500E+02   .59400E+02  -.23149E+01
   .55800E+02   .59418E+02  -.22944E+01
   .56000E+02   .59430E+02  -.22807E+01
   .56200E+02   .59441E+02  -.22676E+01
   .56400E+02   .59452E+02  -.22545E+01
   .56600E+02   .59463E+02  -.22414E+01
   .56800E+02   .59473E+02  -.22283E+01
   .57000E+02   .59483E+02  -.22156E+01
   .57200E+02   .59493E+02  -.22030E+01
   .57400E+02   .59503E+02  -.21903E+01
   .57530E+02   .59509E+02  -.21821E+01
   .57660E+02   .59515E+02  -.21741E+01
   .57800E+02   .59522E+02  -.21655E+01
   .58000E+02   .59531E+02  -.21532E+01
   .58300E+02   .59544E+02  -.21349E+01
   .58500E+02   .59553E+02  -.21227E+01
   .58800E+02   .59565E+02  -.21050E+01
   .59000E+02   .59573E+02  -.20932E+01
   .59300E+02   .59585E+02  -.20755E+01
   .59540E+02   .59594E+02  -.20614E+01
   .59670E+02   .59599E+02  -.20539E+01
   .59800E+02   .59604E+02  -.20465E+01
   .59900E+02   .59608E+02  -.20408E+01
   .60000E+02   .59611E+02  -.20352E+01
   .60400E+02   .59625E+02  -.20127E+01
   .60800E+02   .59639E+02  -.19903E+01
   .61100E+02   .59648E+02  -.19740E+01
   .61500E+02   .59661E+02  -.19523E+01
   .61900E+02   .59672E+02  -.19312E+01
   .62300E+02   .59684E+02  -.19101E+01
   .62600E+02   .59692E+02  -.18948E+01
   .63000E+02   .59702E+02  -.18743E+01
   .63500E+02   .59715E+02  -.18496E+01
   .64000E+02   .59726E+02  -.18249E+01
   .64500E+02   .59737E+02  -.18012E+01
   .65000E+02   .59748E+02  -.17775E+01
   .65500E+02   .59758E+02  -.17543E+01
   .65900E+02   .59766E+02  -.17358E+01
   .66400E+02   .59775E+02  -.17134E+01
   .66830E+02   .59782E+02  -.16942E+01
   .67100E+02   .59786E+02  -.16825E+01
   .67400E+02   .59791E+02  -.16695E+01
   .68000E+02   .59800E+02  -.16442E+01
   .68500E+02   .59807E+02  -.16237E+01
   .69000E+02   .59813E+02  -.16032E+01
   .69500E+02   .59819E+02  -.15835E+01
   .70000E+02   .59825E+02  -.15639E+01
   .70500E+02   .59830E+02  -.15451E+01
   .71000E+02   .59835E+02  -.15263E+01
   .71500E+02   .59840E+02  -.15083E+01
   .72000E+02   .59845E+02  -.14902E+01
   .72800E+02   .59852E+02  -.14626E+01
   .73500E+02   .59858E+02  -.14385E+01
   .74200E+02   .59863E+02  -.14156E+01
   .74960E+02   .59868E+02  -.13908E+01
   .75500E+02   .59872E+02  -.13737E+01
   .76000E+02   .59875E+02  -.13581E+01
   .77110E+02   .59881E+02  -.13245E+01
   .78600E+02   .59888E+02  -.12814E+01
   .79300E+02   .59890E+02  -.12619E+01
   .80000E+02   .59893E+02  -.12429E+01
   .81500E+02   .59898E+02  -.12029E+01
   .83000E+02   .59902E+02  -.11650E+01
   .84000E+02   .59903E+02  -.11407E+01
   .85000E+02   .59905E+02  -.11172E+01
   .86500E+02   .59906E+02  -.10833E+01
   .88000E+02   .59907E+02  -.10509E+01
   .89000E+02   .59907E+02  -.10302E+01
   .90000E+02   .59907E+02  -.10101E+01
   .91500E+02   .59907E+02  -.98113E+00
   .93000E+02   .59906E+02  -.95342E+00
   .94000E+02   .59906E+02  -.93562E+00
   .95000E+02   .59905E+02  -.91833E+00
   .96500E+02   .59903E+02  -.89313E+00
   .98000E+02   .59902E+02  -.86900E+00
   .99000E+02   .59900E+02  -.85347E+00
   .99500E+02   .59900E+02  -.84587E+00
   .10000E+03   .59899E+02  -.83837E+00
   .10150E+03   .59897E+02  -.81629E+00
   .10300E+03   .59894E+02  -.79511E+00
   .10400E+03   .59893E+02  -.78145E+00
   .10500E+03   .59891E+02  -.76816E+00
   .10650E+03   .59888E+02  -.74888E+00
   .10800E+03   .59885E+02  -.73033E+00
   .10900E+03   .59883E+02  -.71837E+00
   .11000E+03   .59881E+02  -.70670E+00
   .11150E+03   .59877E+02  -.68975E+00
   .11300E+03   .59874E+02  -.67343E+00
   .11400E+03   .59872E+02  -.66287E+00
   .11500E+03   .59870E+02  -.65258E+00
   .11650E+03   .59867E+02  -.63747E+00
   .11800E+03   .59863E+02  -.62290E+00
   .11900E+03   .59861E+02  -.61347E+00
   .12000E+03   .59859E+02  -.60427E+00
   .12200E+03   .59854E+02  -.58648E+00
   .12400E+03   .59850E+02  -.56950E+00
   .12550E+03   .59846E+02  -.55726E+00
   .12700E+03   .59843E+02  -.54543E+00
   .12850E+03   .59840E+02  -.53398E+00
   .13000E+03   .59836E+02  -.52290E+00
   .13150E+03   .59833E+02  -.51215E+00
   .13300E+03   .59829E+02  -.50175E+00
   .13450E+03   .59826E+02  -.49167E+00
   .13600E+03   .59823E+02  -.48190E+00
   .13750E+03   .59820E+02  -.47244E+00
   .13900E+03   .59816E+02  -.46326E+00
   .14050E+03   .59813E+02  -.45435E+00
   .14200E+03   .59810E+02  -.44569E+00
   .14400E+03   .59806E+02  -.43455E+00
   .14540E+03   .59803E+02  -.42700E+00
   .14600E+03   .59801E+02  -.42383E+00
   .14670E+03   .59800E+02  -.42018E+00
   .14800E+03   .59797E+02  -.41352E+00
   .14900E+03   .59795E+02  -.40851E+00
   .14950E+03   .59794E+02  -.40604E+00
   .15000E+03   .59793E+02  -.40359E+00
   .15200E+03   .59790E+02  -.39406E+00
   .15400E+03   .59786E+02  -.38486E+00
   .15600E+03   .59782E+02  -.37600E+00
   .15800E+03   .59778E+02  -.36745E+00
   .16000E+03   .59774E+02  -.35920E+00
   .16200E+03   .59771E+02  -.35123E+00
   .16350E+03   .59768E+02  -.34543E+00
   .16500E+03   .59765E+02  -.33978E+00
   .16700E+03   .59762E+02  -.33247E+00
   .16900E+03   .59758E+02  -.32540E+00
   .17100E+03   .59755E+02  -.31856E+00
   .17300E+03   .59752E+02  -.31194E+00
   .17500E+03   .59749E+02  -.30553E+00
   .17700E+03   .59745E+02  -.29932E+00
   .18000E+03   .59741E+02  -.29038E+00
   .18300E+03   .59736E+02  -.28192E+00
   .18500E+03   .59733E+02  -.27649E+00
   .18800E+03   .59729E+02  -.26864E+00
   .19000E+03   .59726E+02  -.26360E+00
   .19300E+03   .59722E+02  -.25635E+00
   .19500E+03   .59719E+02  -.25169E+00
   .19800E+03   .59715E+02  -.24493E+00
   .20000E+03   .59713E+02  -.24059E+00
