    E(keV)         f1           f2     
   .10000E+01   .51025E+02  -.20508E+02
   .10100E+01   .51141E+02  -.20328E+02
   .10200E+01   .51251E+02  -.20148E+02
   .10300E+01   .51357E+02  -.19972E+02
   .10410E+01   .51469E+02  -.19779E+02
   .10700E+01   .51734E+02  -.19287E+02
   .11000E+01   .51970E+02  -.18793E+02
   .11300E+01   .52172E+02  -.18320E+02
   .11500E+01   .52290E+02  -.18016E+02
   .11700E+01   .52394E+02  -.17719E+02
   .12000E+01   .52528E+02  -.17287E+02
   .12300E+01   .52634E+02  -.16871E+02
   .12540E+01   .52700E+02  -.16547E+02
   .12800E+01   .52751E+02  -.16209E+02
   .13000E+01   .52780E+02  -.15958E+02
   .13400E+01   .52806E+02  -.15470E+02
   .13800E+01   .52793E+02  -.15005E+02
   .14176E+01   .52744E+02  -.14588E+02
   .14400E+01   .52697E+02  -.14349E+02
   .14600E+01   .52647E+02  -.14141E+02
   .14800E+01   .52586E+02  -.13937E+02
   .14900E+01   .52553E+02  -.13838E+02
   .15000E+01   .52517E+02  -.13740E+02
   .15300E+01   .52394E+02  -.13445E+02
   .15700E+01   .52189E+02  -.13071E+02
   .16100E+01   .51939E+02  -.12712E+02
   .16300E+01   .51796E+02  -.12542E+02
   .16500E+01   .51641E+02  -.12371E+02
   .16700E+01   .51473E+02  -.12207E+02
   .16900E+01   .51290E+02  -.12043E+02
   .17100E+01   .51092E+02  -.11886E+02
   .17300E+01   .50879E+02  -.11730E+02
   .17500E+01   .50649E+02  -.11579E+02
   .17700E+01   .50401E+02  -.11428E+02
   .17850E+01   .50201E+02  -.11320E+02
   .18000E+01   .49989E+02  -.11211E+02
   .18200E+01   .49688E+02  -.11069E+02
   .18500E+01   .49185E+02  -.10863E+02
   .18700E+01   .48814E+02  -.10731E+02
   .18850E+01   .48512E+02  -.10632E+02
   .19000E+01   .48192E+02  -.10533E+02
   .19100E+01   .47966E+02  -.10470E+02
   .19200E+01   .47728E+02  -.10407E+02
   .19350E+01   .47348E+02  -.10313E+02
   .19500E+01   .46938E+02  -.10218E+02
   .19600E+01   .46643E+02  -.10158E+02
   .19700E+01   .46336E+02  -.10099E+02
   .19850E+01   .45836E+02  -.10009E+02
   .20000E+01   .45287E+02  -.99195E+01
   .20080E+01   .44972E+02  -.98728E+01
   .20150E+01   .44681E+02  -.98320E+01
   .20230E+01   .44329E+02  -.97853E+01
   .20300E+01   .44002E+02  -.97445E+01
   .20380E+01   .43605E+02  -.96993E+01
   .20450E+01   .43235E+02  -.96598E+01
   .20530E+01   .42782E+02  -.96146E+01
   .20600E+01   .42355E+02  -.95751E+01
   .20670E+01   .41896E+02  -.95371E+01
   .20750E+01   .41324E+02  -.94937E+01
   .20820E+01   .40776E+02  -.94557E+01
   .20860E+01   .40438E+02  -.94340E+01
   .20900E+01   .40080E+02  -.94122E+01
   .20940E+01   .39700E+02  -.93905E+01
   .20970E+01   .39397E+02  -.93742E+01
   .21010E+01   .38967E+02  -.93525E+01
   .21040E+01   .38623E+02  -.93363E+01
   .21080E+01   .38128E+02  -.93145E+01
   .21110E+01   .37724E+02  -.92983E+01
   .21150E+01   .37134E+02  -.92766E+01
   .21187E+01   .36470E+02  -.92563E+01
   .21188E+01   .36501E+02  -.93890E+01
   .21188E+01   .36532E+02  -.92558E+01
   .21196E+01   .36353E+02  -.92518E+01
   .21203E+01   .36072E+02  -.92478E+01
   .21204E+01   .36207E+02  -.97382E+01
   .21204E+01   .36344E+02  -.92473E+01
   .21220E+01   .35889E+02  -.92391E+01
   .21233E+01   .35604E+02  -.92323E+01
   .21245E+01   .35307E+02  -.92259E+01
   .21258E+01   .34952E+02  -.92192E+01
   .21270E+01   .34514E+02  -.92130E+01
   .21278E+01   .34014E+02  -.92088E+01
   .21286E+01   .24763E+02  -.92045E+01
   .21287E+01   .34153E+02  -.41429E+02
   .21287E+01   .43542E+02  -.92040E+01
   .21288E+01   .37832E+02  -.92036E+01
   .21289E+01   .36443E+02  -.92033E+01
   .21289E+01   .36115E+02  -.92031E+01
   .21289E+01   .35793E+02  -.92029E+01
   .21290E+01   .35607E+02  -.92027E+01
   .21290E+01   .35411E+02  -.92761E+01
   .21290E+01   .35328E+02  -.93505E+01
   .21291E+01   .35220E+02  -.94632E+01
   .21291E+01   .35156E+02  -.95389E+01
   .21291E+01   .35070E+02  -.95392E+01
   .21291E+01   .35019E+02  -.95393E+01
   .21291E+01   .34949E+02  -.95396E+01
   .21292E+01   .34848E+02  -.95401E+01
   .21293E+01   .34687E+02  -.95410E+01
   .21294E+01   .34562E+02  -.95420E+01
   .21297E+01   .34327E+02  -.95443E+01
   .21301E+01   .33984E+02  -.95503E+01
   .21306E+01   .31535E+02  -.95583E+01
   .21306E+01   .33974E+02  -.17983E+02
   .21307E+01   .36412E+02  -.95603E+01
   .21310E+01   .34121E+02  -.95667E+01
   .21312E+01   .32938E+02  -.95732E+01
   .21313E+01   .33918E+02  -.13068E+02
   .21313E+01   .34895E+02  -.95755E+01
   .21314E+01   .34048E+02  -.95788E+01
   .21316E+01   .33465E+02  -.95822E+01
   .21316E+01   .33917E+02  -.11366E+02
   .21316E+01   .34362E+02  -.95849E+01
   .21317E+01   .34055E+02  -.95862E+01
   .21317E+01   .33726E+02  -.95875E+01
   .21318E+01   .33929E+02  -.10621E+02
   .21318E+01   .34110E+02  -.95902E+01
   .21318E+01   .33962E+02  -.95908E+01
   .21318E+01   .33771E+02  -.95914E+01
   .21319E+01   .33949E+02  -.10646E+02
   .21319E+01   .34157E+02  -.95941E+01
   .21319E+01   .34060E+02  -.95946E+01
   .21320E+01   .33881E+02  -.95951E+01
   .21320E+01   .34011E+02  -.10494E+02
   .21320E+01   .34093E+02  -.95972E+01
   .21320E+01   .34151E+02  -.95978E+01
   .21321E+01   .34256E+02  -.95984E+01
   .21321E+01   .34203E+02  -.97417E+01
   .21321E+01   .34093E+02  -.96009E+01
   .21329E+01   .33528E+02  -.96348E+01
   .21336E+01   .33263E+02  -.96732E+01
   .21343E+01   .33003E+02  -.97204E+01
   .21350E+01   .32755E+02  -.97765E+01
   .21355E+01   .32570E+02  -.98249E+01
   .21360E+01   .32388E+02  -.98789E+01
   .21365E+01   .32200E+02  -.99368E+01
   .21370E+01   .32013E+02  -.10005E+02
   .21375E+01   .31819E+02  -.10080E+02
   .21380E+01   .31625E+02  -.10159E+02
   .21385E+01   .31432E+02  -.10249E+02
   .21390E+01   .31240E+02  -.10347E+02
   .21395E+01   .31043E+02  -.10455E+02
   .21400E+01   .30847E+02  -.10572E+02
   .21405E+01   .30650E+02  -.10700E+02
   .21410E+01   .30455E+02  -.10836E+02
   .21415E+01   .30266E+02  -.10980E+02
   .21420E+01   .30078E+02  -.11139E+02
   .21425E+01   .29890E+02  -.11304E+02
   .21430E+01   .29702E+02  -.11480E+02
   .21435E+01   .29527E+02  -.11666E+02
   .21440E+01   .29351E+02  -.11862E+02
   .21445E+01   .29190E+02  -.12068E+02
   .21450E+01   .29028E+02  -.12283E+02
   .21458E+01   .28804E+02  -.12642E+02
   .21465E+01   .28609E+02  -.12973E+02
   .21472E+01   .28456E+02  -.13317E+02
   .21480E+01   .28281E+02  -.13720E+02
   .21490E+01   .28119E+02  -.14238E+02
   .21500E+01   .28005E+02  -.14761E+02
   .21515E+01   .27918E+02  -.15542E+02
   .21530E+01   .27925E+02  -.16298E+02
   .21540E+01   .27976E+02  -.16777E+02
   .21550E+01   .28061E+02  -.17236E+02
   .21560E+01   .28177E+02  -.17668E+02
   .21570E+01   .28293E+02  -.18074E+02
   .21580E+01   .28446E+02  -.18457E+02
   .21590E+01   .28598E+02  -.18812E+02
   .21600E+01   .28765E+02  -.19142E+02
   .21610E+01   .28933E+02  -.19447E+02
   .21620E+01   .29105E+02  -.19732E+02
   .21630E+01   .29278E+02  -.20000E+02
   .21640E+01   .29444E+02  -.20248E+02
   .21650E+01   .29611E+02  -.20480E+02
   .21661E+01   .29795E+02  -.20714E+02
   .21673E+01   .29992E+02  -.20953E+02
   .21690E+01   .30256E+02  -.21278E+02
   .21710E+01   .30564E+02  -.21613E+02
   .21725E+01   .30777E+02  -.21847E+02
   .21740E+01   .30989E+02  -.22067E+02
   .21755E+01   .31187E+02  -.22269E+02
   .21770E+01   .31384E+02  -.22458E+02
   .21785E+01   .31571E+02  -.22643E+02
   .21800E+01   .31757E+02  -.22816E+02
   .21815E+01   .31928E+02  -.22972E+02
   .21830E+01   .32098E+02  -.23130E+02
   .21845E+01   .32269E+02  -.23268E+02
   .21860E+01   .32439E+02  -.23396E+02
   .21890E+01   .32742E+02  -.23632E+02
   .21910E+01   .32934E+02  -.23767E+02
   .21940E+01   .33192E+02  -.23940E+02
   .21970E+01   .33409E+02  -.24080E+02
   .22000E+01   .33583E+02  -.24193E+02
   .22025E+01   .33597E+02  -.24263E+02
   .22025E+01   .33686E+02  -.24569E+02
   .22025E+01   .33775E+02  -.24265E+02
   .22033E+01   .33706E+02  -.24285E+02
   .22041E+01   .33696E+02  -.24304E+02
   .22041E+01   .33732E+02  -.24425E+02
   .22042E+01   .33767E+02  -.24306E+02
   .22060E+01   .33743E+02  -.24335E+02
   .22080E+01   .33692E+02  -.24368E+02
   .22090E+01   .33618E+02  -.24378E+02
   .22100E+01   .33472E+02  -.24387E+02
   .22109E+01   .33126E+02  -.24396E+02
   .22118E+01   .23008E+02  -.24404E+02
   .22118E+01   .33505E+02  -.60911E+02
   .22119E+01   .44000E+02  -.24405E+02
   .22120E+01   .36718E+02  -.24406E+02
   .22121E+01   .35223E+02  -.24407E+02
   .22122E+01   .34823E+02  -.24407E+02
   .22122E+01   .34484E+02  -.24407E+02
   .22123E+01   .34104E+02  -.24408E+02
   .22123E+01   .33465E+02  -.24408E+02
   .22124E+01   .33622E+02  -.24432E+02
   .22124E+01   .33795E+02  -.24476E+02
   .22124E+01   .34145E+02  -.27488E+02
   .22124E+01   .34538E+02  -.26372E+02
   .22125E+01   .34965E+02  -.24697E+02
   .22125E+01   .34538E+02  -.24699E+02
   .22126E+01   .34377E+02  -.24701E+02
   .22126E+01   .34283E+02  -.24702E+02
   .22127E+01   .34205E+02  -.24704E+02
   .22128E+01   .34124E+02  -.24707E+02
   .22129E+01   .34061E+02  -.24710E+02
   .22131E+01   .33963E+02  -.24716E+02
   .22133E+01   .33877E+02  -.24722E+02
   .22137E+01   .33696E+02  -.24726E+02
   .22142E+01   .31625E+02  -.24732E+02
   .22142E+01   .33725E+02  -.32137E+02
   .22143E+01   .35794E+02  -.24734E+02
   .22143E+01   .35133E+02  -.24734E+02
   .22143E+01   .34754E+02  -.24735E+02
   .22143E+01   .34597E+02  -.25513E+02
   .22144E+01   .34583E+02  -.24737E+02
   .22147E+01   .33930E+02  -.24742E+02
   .22149E+01   .32915E+02  -.24747E+02
   .22150E+01   .33960E+02  -.27948E+02
   .22150E+01   .34833E+02  -.24749E+02
   .22151E+01   .34027E+02  -.24751E+02
   .22153E+01   .33503E+02  -.24754E+02
   .22153E+01   .33902E+02  -.26343E+02
   .22153E+01   .34368E+02  -.24756E+02
   .22154E+01   .34066E+02  -.24757E+02
   .22154E+01   .33801E+02  -.24758E+02
   .22155E+01   .33975E+02  -.25664E+02
   .22155E+01   .34150E+02  -.24759E+02
   .22155E+01   .34001E+02  -.24760E+02
   .22156E+01   .33879E+02  -.24760E+02
   .22156E+01   .34040E+02  -.25642E+02
   .22157E+01   .34221E+02  -.24762E+02
   .22157E+01   .34083E+02  -.24762E+02
   .22157E+01   .34017E+02  -.24763E+02
   .22157E+01   .34132E+02  -.25454E+02
   .22158E+01   .34282E+02  -.24765E+02
   .22170E+01   .33773E+02  -.24806E+02
   .22180E+01   .33631E+02  -.24852E+02
   .22190E+01   .33512E+02  -.24908E+02
   .22198E+01   .33405E+02  -.24969E+02
   .22205E+01   .33314E+02  -.25030E+02
   .22213E+01   .33202E+02  -.25110E+02
   .22220E+01   .33105E+02  -.25189E+02
   .22228E+01   .32987E+02  -.25297E+02
   .22235E+01   .32884E+02  -.25403E+02
   .22243E+01   .32768E+02  -.25540E+02
   .22250E+01   .32666E+02  -.25674E+02
   .22258E+01   .32556E+02  -.25841E+02
   .22265E+01   .32460E+02  -.26004E+02
   .22273E+01   .32366E+02  -.26203E+02
   .22280E+01   .32284E+02  -.26389E+02
   .22288E+01   .32212E+02  -.26621E+02
   .22295E+01   .32150E+02  -.26833E+02
   .22310E+01   .32074E+02  -.27316E+02
   .22325E+01   .32062E+02  -.27822E+02
   .22340E+01   .32117E+02  -.28335E+02
   .22355E+01   .32241E+02  -.28843E+02
   .22370E+01   .32416E+02  -.29335E+02
   .22385E+01   .32644E+02  -.29789E+02
   .22400E+01   .32907E+02  -.30206E+02
   .22420E+01   .33298E+02  -.30696E+02
   .22430E+01   .33504E+02  -.30922E+02
   .22440E+01   .33710E+02  -.31128E+02
   .22450E+01   .33920E+02  -.31318E+02
   .22460E+01   .34130E+02  -.31492E+02
   .22480E+01   .34550E+02  -.31814E+02
   .22500E+01   .34954E+02  -.32092E+02
   .22520E+01   .35359E+02  -.32331E+02
   .22535E+01   .35651E+02  -.32503E+02
   .22550E+01   .35943E+02  -.32661E+02
   .22570E+01   .36315E+02  -.32847E+02
   .22590E+01   .36688E+02  -.33024E+02
   .22630E+01   .37405E+02  -.33330E+02
   .22660E+01   .37923E+02  -.33520E+02
   .22700E+01   .38613E+02  -.33737E+02
   .22730E+01   .39110E+02  -.33868E+02
   .22750E+01   .39441E+02  -.33941E+02
   .22780E+01   .39915E+02  -.34028E+02
   .22800E+01   .40231E+02  -.34074E+02
   .22850E+01   .40979E+02  -.34146E+02
   .22880E+01   .41403E+02  -.34160E+02
   .22900E+01   .41675E+02  -.34169E+02
   .22940E+01   .42202E+02  -.34150E+02
   .22980E+01   .42695E+02  -.34130E+02
   .23020E+01   .43153E+02  -.34089E+02
   .23050E+01   .43485E+02  -.34057E+02
   .23090E+01   .43899E+02  -.34001E+02
   .23130E+01   .44293E+02  -.33945E+02
   .23170E+01   .44663E+02  -.33885E+02
   .23200E+01   .44930E+02  -.33840E+02
   .23250E+01   .45354E+02  -.33764E+02
   .23300E+01   .45757E+02  -.33689E+02
   .23350E+01   .46142E+02  -.33617E+02
   .23400E+01   .46512E+02  -.33545E+02
   .23470E+01   .47013E+02  -.33439E+02
   .23550E+01   .47552E+02  -.33319E+02
   .23620E+01   .48005E+02  -.33204E+02
   .23700E+01   .48495E+02  -.33073E+02
   .23780E+01   .48959E+02  -.32927E+02
   .23850E+01   .49343E+02  -.32799E+02
   .23930E+01   .49755E+02  -.32649E+02
   .24000E+01   .50099E+02  -.32518E+02
   .24050E+01   .50335E+02  -.32422E+02
   .24110E+01   .50605E+02  -.32306E+02
   .24213E+01   .51043E+02  -.32105E+02
   .24360E+01   .51612E+02  -.31831E+02
   .24500E+01   .52106E+02  -.31569E+02
   .24600E+01   .52433E+02  -.31382E+02
   .24700E+01   .52738E+02  -.31195E+02
   .24850E+01   .53151E+02  -.30923E+02
   .25000E+01   .53515E+02  -.30651E+02
   .25100E+01   .53731E+02  -.30469E+02
   .25200E+01   .53926E+02  -.30288E+02
   .25300E+01   .54096E+02  -.30111E+02
   .25400E+01   .54238E+02  -.29934E+02
   .25480E+01   .54330E+02  -.29793E+02
   .25550E+01   .54393E+02  -.29669E+02
   .25630E+01   .54441E+02  -.29528E+02
   .25700E+01   .54459E+02  -.29404E+02
   .25770E+01   .54449E+02  -.29286E+02
   .25850E+01   .54395E+02  -.29151E+02
   .25920E+01   .54294E+02  -.29033E+02
   .26000E+01   .54088E+02  -.28898E+02
   .26050E+01   .53881E+02  -.28813E+02
   .26080E+01   .53710E+02  -.28763E+02
   .26100E+01   .53569E+02  -.28729E+02
   .26130E+01   .53299E+02  -.28678E+02
   .26160E+01   .52919E+02  -.28628E+02
   .26190E+01   .52340E+02  -.28577E+02
   .26210E+01   .51731E+02  -.28543E+02
   .26213E+01   .51614E+02  -.28538E+02
   .26215E+01   .51530E+02  -.28535E+02
   .26220E+01   .51301E+02  -.28527E+02
   .26230E+01   .50722E+02  -.28510E+02
   .26269E+01   .10491E+02  -.28446E+02
   .26270E+01   .44298E+02  -.14313E+03
   .26270E+01   .78088E+02  -.28444E+02
   .26277E+01   .37524E+02  -.28432E+02
   .26285E+01  -.20453E+03  -.28420E+02
   .26286E+01   .54553E+02  -.90063E+03
   .26286E+01   .31364E+03  -.28418E+02
   .26298E+01   .65835E+02  -.28399E+02
   .26310E+01   .59519E+02  -.28379E+02
   .26317E+01   .57941E+02  -.28368E+02
   .26324E+01   .56827E+02  -.28356E+02
   .26332E+01   .55906E+02  -.28343E+02
   .26336E+01   .55496E+02  -.28337E+02
   .26340E+01   .55107E+02  -.28330E+02
   .26343E+01   .54822E+02  -.28325E+02
   .26345E+01   .54632E+02  -.28322E+02
   .26348E+01   .54342E+02  -.28317E+02
   .26351E+01   .54039E+02  -.28312E+02
   .26354E+01   .53715E+02  -.28307E+02
   .26356E+01   .53540E+02  -.28305E+02
   .26357E+01   .53353E+02  -.28302E+02
   .26358E+01   .53150E+02  -.28300E+02
   .26360E+01   .52924E+02  -.28297E+02
   .26361E+01   .52737E+02  -.28296E+02
   .26362E+01   .52482E+02  -.28294E+02
   .26363E+01   .52463E+02  -.28382E+02
   .26363E+01   .52443E+02  -.28513E+02
   .26363E+01   .52396E+02  -.28292E+02
   .26364E+01   .52235E+02  -.28291E+02
   .26365E+01   .52073E+02  -.28290E+02
   .26365E+01   .51901E+02  -.28289E+02
   .26366E+01   .51728E+02  -.28288E+02
   .26366E+01   .51523E+02  -.28287E+02
   .26367E+01   .51400E+02  -.28287E+02
   .26367E+01   .51261E+02  -.28286E+02
   .26367E+01   .51103E+02  -.28286E+02
   .26367E+01   .50919E+02  -.28285E+02
   .26368E+01   .50695E+02  -.28285E+02
   .26368E+01   .50378E+02  -.28284E+02
   .26368E+01   .50202E+02  -.28284E+02
   .26368E+01   .50029E+02  -.28284E+02
   .26369E+01   .49623E+02  -.28652E+02
   .26369E+01   .49207E+02  -.29757E+02
   .26370E+01   .49626E+02  -.30873E+02
   .26370E+01   .50273E+02  -.30885E+02
   .26370E+01   .50582E+02  -.30897E+02
   .26371E+01   .50754E+02  -.30910E+02
   .26372E+01   .50885E+02  -.30924E+02
   .26372E+01   .50975E+02  -.30941E+02
   .26373E+01   .51011E+02  -.30956E+02
   .26374E+01   .51022E+02  -.30972E+02
   .26374E+01   .50973E+02  -.30988E+02
   .26375E+01   .50894E+02  -.31002E+02
   .26376E+01   .50533E+02  -.31031E+02
   .26377E+01   .49722E+02  -.31055E+02
   .26378E+01   .45857E+02  -.31081E+02
   .26379E+01   .51925E+02  -.51588E+02
   .26379E+01   .57992E+02  -.31107E+02
   .26381E+01   .53319E+02  -.31146E+02
   .26383E+01   .52332E+02  -.31194E+02
   .26386E+01   .51098E+02  -.31242E+02
   .26388E+01   .45921E+02  -.31276E+02
   .26388E+01   .52373E+02  -.53450E+02
   .26389E+01   .58793E+02  -.31296E+02
   .26390E+01   .54497E+02  -.31313E+02
   .26391E+01   .52126E+02  -.31327E+02
   .26391E+01   .53733E+02  -.38094E+02
   .26392E+01   .55404E+02  -.31343E+02
   .26393E+01   .53150E+02  -.31362E+02
   .26394E+01   .50090E+02  -.31381E+02
   .26395E+01   .53128E+02  -.42747E+02
   .26395E+01   .55969E+02  -.31397E+02
   .26395E+01   .55558E+02  -.31398E+02
   .26395E+01   .55029E+02  -.31399E+02
   .26396E+01   .54530E+02  -.34469E+02
   .26397E+01   .54569E+02  -.31415E+02
   .26397E+01   .53492E+02  -.31420E+02
   .26397E+01   .51983E+02  -.31426E+02
   .26398E+01   .53810E+02  -.39343E+02
   .26398E+01   .55887E+02  -.31442E+02
   .26399E+01   .54303E+02  -.31448E+02
   .26399E+01   .52749E+02  -.31454E+02
   .26400E+01   .54271E+02  -.38642E+02
   .26400E+01   .55926E+02  -.31470E+02
   .26400E+01   .55403E+02  -.31472E+02
   .26401E+01   .54637E+02  -.31474E+02
   .26401E+01   .54986E+02  -.35683E+02
   .26402E+01   .55347E+02  -.31489E+02
   .26402E+01   .55731E+02  -.35494E+02
   .26402E+01   .55983E+02  -.31500E+02
   .26402E+01   .56368E+02  -.31502E+02
   .26403E+01   .56575E+02  -.31505E+02
   .26403E+01   .56344E+02  -.32009E+02
   .26403E+01   .55797E+02  -.31515E+02
   .26412E+01   .54386E+02  -.31617E+02
   .26420E+01   .54232E+02  -.31711E+02
   .26430E+01   .54202E+02  -.31799E+02
   .26440E+01   .54236E+02  -.31887E+02
   .26450E+01   .54292E+02  -.31956E+02
   .26460E+01   .54361E+02  -.32025E+02
   .26480E+01   .54524E+02  -.32136E+02
   .26500E+01   .54692E+02  -.32214E+02
   .26520E+01   .54870E+02  -.32279E+02
   .26535E+01   .54999E+02  -.32311E+02
   .26550E+01   .55134E+02  -.32343E+02
   .26590E+01   .55475E+02  -.32379E+02
   .26630E+01   .55799E+02  -.32373E+02
   .26660E+01   .56026E+02  -.32341E+02
   .26700E+01   .56297E+02  -.32286E+02
   .26730E+01   .56486E+02  -.32230E+02
   .26750E+01   .56603E+02  -.32193E+02
   .26780E+01   .56769E+02  -.32132E+02
   .26800E+01   .56872E+02  -.32091E+02
   .26850E+01   .57112E+02  -.31988E+02
   .26900E+01   .57327E+02  -.31886E+02
   .26950E+01   .57526E+02  -.31799E+02
   .27000E+01   .57712E+02  -.31711E+02
   .27050E+01   .57887E+02  -.31624E+02
   .27100E+01   .58060E+02  -.31537E+02
   .27200E+01   .58385E+02  -.31378E+02
   .27300E+01   .58689E+02  -.31220E+02
   .27400E+01   .58982E+02  -.31063E+02
   .27500E+01   .59259E+02  -.30906E+02
   .27650E+01   .59645E+02  -.30670E+02
   .27800E+01   .59999E+02  -.30434E+02
   .27900E+01   .60220E+02  -.30282E+02
   .28000E+01   .60429E+02  -.30130E+02
   .28130E+01   .60686E+02  -.29933E+02
   .28266E+01   .60941E+02  -.29726E+02
   .28380E+01   .61142E+02  -.29561E+02
   .28500E+01   .61342E+02  -.29387E+02
   .28600E+01   .61500E+02  -.29241E+02
   .28700E+01   .61651E+02  -.29096E+02
   .28900E+01   .61929E+02  -.28815E+02
   .29000E+01   .62056E+02  -.28674E+02
   .29100E+01   .62174E+02  -.28533E+02
   .29200E+01   .62281E+02  -.28395E+02
   .29300E+01   .62377E+02  -.28257E+02
   .29400E+01   .62461E+02  -.28119E+02
   .29500E+01   .62529E+02  -.27981E+02
   .29580E+01   .62569E+02  -.27875E+02
   .29650E+01   .62593E+02  -.27781E+02
   .29730E+01   .62600E+02  -.27675E+02
   .29800E+01   .62583E+02  -.27582E+02
   .29850E+01   .62550E+02  -.27515E+02
   .29900E+01   .62492E+02  -.27449E+02
   .29950E+01   .62393E+02  -.27382E+02
   .30000E+01   .62213E+02  -.27316E+02
   .30015E+01   .62130E+02  -.27296E+02
   .30030E+01   .62024E+02  -.27276E+02
   .30060E+01   .61688E+02  -.27237E+02
   .30075E+01   .61393E+02  -.27217E+02
   .30090E+01   .60893E+02  -.27197E+02
   .30110E+01   .59107E+02  -.27171E+02
   .30129E+01  -.45851E+02  -.27146E+02
   .30130E+01   .62480E+02  -.37463E+03
   .30130E+01   .17081E+03  -.27144E+02
   .30140E+01   .69017E+02  -.27131E+02
   .30150E+01   .65728E+02  -.27118E+02
   .30165E+01   .64222E+02  -.27099E+02
   .30179E+01   .63561E+02  -.27080E+02
   .30185E+01   .63360E+02  -.27073E+02
   .30190E+01   .63201E+02  -.27066E+02
   .30195E+01   .63048E+02  -.27059E+02
   .30200E+01   .62894E+02  -.27053E+02
   .30204E+01   .62764E+02  -.27048E+02
   .30207E+01   .62657E+02  -.27044E+02
   .30208E+01   .62600E+02  -.27042E+02
   .30210E+01   .62539E+02  -.27040E+02
   .30212E+01   .62448E+02  -.27037E+02
   .30214E+01   .62344E+02  -.27035E+02
   .30215E+01   .62251E+02  -.27033E+02
   .30216E+01   .62201E+02  -.27032E+02
   .30217E+01   .62138E+02  -.27031E+02
   .30218E+01   .62042E+02  -.27029E+02
   .30219E+01   .61985E+02  -.27029E+02
   .30219E+01   .61918E+02  -.27028E+02
   .30220E+01   .61835E+02  -.27028E+02
   .30220E+01   .61722E+02  -.27027E+02
   .30220E+01   .61502E+02  -.27026E+02
   .30221E+01   .61318E+02  -.27287E+02
   .30222E+01   .61301E+02  -.27616E+02
   .30222E+01   .61454E+02  -.27883E+02
   .30222E+01   .61647E+02  -.27887E+02
   .30223E+01   .61735E+02  -.27892E+02
   .30224E+01   .61792E+02  -.27896E+02
   .30224E+01   .61835E+02  -.27900E+02
   .30224E+01   .61868E+02  -.27904E+02
   .30225E+01   .61895E+02  -.27909E+02
   .30226E+01   .61926E+02  -.27915E+02
   .30227E+01   .61944E+02  -.27921E+02
   .30228E+01   .61947E+02  -.27935E+02
   .30228E+01   .61956E+02  -.27936E+02
   .30228E+01   .61970E+02  -.27938E+02
   .30229E+01   .61992E+02  -.28065E+02
   .30229E+01   .62035E+02  -.27945E+02
   .30234E+01   .61943E+02  -.27983E+02
   .30238E+01   .60421E+02  -.28016E+02
   .30239E+01   .62136E+02  -.33562E+02
   .30239E+01   .63849E+02  -.28024E+02
   .30244E+01   .62214E+02  -.28050E+02
   .30248E+01   .60229E+02  -.28077E+02
   .30248E+01   .62231E+02  -.34660E+02
   .30249E+01   .64221E+02  -.28085E+02
   .30250E+01   .62977E+02  -.28090E+02
   .30251E+01   .62240E+02  -.28094E+02
   .30251E+01   .62650E+02  -.29926E+02
   .30252E+01   .63087E+02  -.28100E+02
   .30253E+01   .62425E+02  -.28106E+02
   .30254E+01   .61513E+02  -.28112E+02
   .30255E+01   .62449E+02  -.31528E+02
   .30256E+01   .63301E+02  -.28118E+02
   .30256E+01   .62947E+02  -.28949E+02
   .30257E+01   .62847E+02  -.28124E+02
   .30257E+01   .62570E+02  -.28126E+02
   .30257E+01   .62222E+02  -.28127E+02
   .30258E+01   .62725E+02  -.30468E+02
   .30259E+01   .63266E+02  -.28134E+02
   .30259E+01   .62875E+02  -.28135E+02
   .30259E+01   .62444E+02  -.28137E+02
   .30260E+01   .62900E+02  -.30284E+02
   .30261E+01   .63316E+02  -.28143E+02
   .30261E+01   .63172E+02  -.28143E+02
   .30261E+01   .63020E+02  -.28144E+02
   .30261E+01   .63145E+02  -.29699E+02
   .30262E+01   .63294E+02  -.28148E+02
   .30262E+01   .63362E+02  -.28149E+02
   .30262E+01   .63493E+02  -.28149E+02
   .30262E+01   .63416E+02  -.28863E+02
   .30263E+01   .63458E+02  -.28153E+02
   .30280E+01   .62819E+02  -.28209E+02
   .30300E+01   .62827E+02  -.28274E+02
   .30315E+01   .62866E+02  -.28303E+02
   .30330E+01   .62911E+02  -.28332E+02
   .30370E+01   .63055E+02  -.28374E+02
   .30400E+01   .63164E+02  -.28387E+02
   .30450E+01   .63342E+02  -.28374E+02
   .30500E+01   .63508E+02  -.28334E+02
   .30550E+01   .63657E+02  -.28278E+02
   .30600E+01   .63789E+02  -.28212E+02
   .30640E+01   .63884E+02  -.28157E+02
   .30670E+01   .63951E+02  -.28115E+02
   .30710E+01   .64034E+02  -.28060E+02
   .30750E+01   .64111E+02  -.28005E+02
   .30820E+01   .64238E+02  -.27914E+02
   .30900E+01   .64372E+02  -.27811E+02
   .30980E+01   .64498E+02  -.27715E+02
   .31050E+01   .64605E+02  -.27631E+02
   .31200E+01   .64821E+02  -.27452E+02
   .31330E+01   .64994E+02  -.27296E+02
   .31459E+01   .65152E+02  -.27142E+02
   .31600E+01   .65313E+02  -.26976E+02
   .31700E+01   .65416E+02  -.26858E+02
   .31800E+01   .65511E+02  -.26740E+02
   .31880E+01   .65581E+02  -.26646E+02
   .31950E+01   .65637E+02  -.26563E+02
   .32030E+01   .65695E+02  -.26469E+02
   .32100E+01   .65739E+02  -.26387E+02
   .32180E+01   .65782E+02  -.26297E+02
   .32250E+01   .65809E+02  -.26219E+02
   .32330E+01   .65828E+02  -.26129E+02
   .32400E+01   .65827E+02  -.26050E+02
   .32470E+01   .65802E+02  -.25972E+02
   .32500E+01   .65781E+02  -.25938E+02
   .32530E+01   .65751E+02  -.25904E+02
   .32560E+01   .65707E+02  -.25871E+02
   .32590E+01   .65645E+02  -.25837E+02
   .32605E+01   .65604E+02  -.25820E+02
   .32620E+01   .65552E+02  -.25804E+02
   .32640E+01   .65454E+02  -.25781E+02
   .32654E+01   .64930E+02  -.25765E+02
   .32655E+01   .65383E+02  -.27284E+02
   .32656E+01   .65836E+02  -.25764E+02
   .32663E+01   .65344E+02  -.25755E+02
   .32671E+01   .64712E+02  -.25747E+02
   .32671E+01   .65316E+02  -.27773E+02
   .32672E+01   .65921E+02  -.25746E+02
   .32681E+01   .65265E+02  -.25736E+02
   .32690E+01   .65139E+02  -.25726E+02
   .32700E+01   .64981E+02  -.25715E+02
   .32705E+01   .64885E+02  -.25710E+02
   .32710E+01   .64774E+02  -.25704E+02
   .32715E+01   .64632E+02  -.25699E+02
   .32720E+01   .64457E+02  -.25693E+02
   .32725E+01   .64225E+02  -.25688E+02
   .32728E+01   .64044E+02  -.25684E+02
   .32730E+01   .63898E+02  -.25682E+02
   .32733E+01   .63624E+02  -.25679E+02
   .32735E+01   .63387E+02  -.25677E+02
   .32737E+01   .63085E+02  -.25675E+02
   .32738E+01   .62899E+02  -.25674E+02
   .32739E+01   .62680E+02  -.25672E+02
   .32740E+01   .62419E+02  -.25671E+02
   .32741E+01   .62101E+02  -.25670E+02
   .32742E+01   .61699E+02  -.25669E+02
   .32743E+01   .61455E+02  -.25669E+02
   .32743E+01   .61173E+02  -.25668E+02
   .32743E+01   .60841E+02  -.25667E+02
   .32744E+01   .60443E+02  -.25667E+02
   .32745E+01   .59957E+02  -.25666E+02
   .32745E+01   .59343E+02  -.25666E+02
   .32745E+01   .58887E+02  -.25666E+02
   .32746E+01   .58090E+02  -.25665E+02
   .32746E+01   .57323E+02  -.25665E+02
   .32746E+01   .56075E+02  -.25843E+02
   .32747E+01   .54870E+02  -.26115E+02
   .32747E+01   .52741E+02  -.26482E+02
   .32747E+01   .49136E+02  -.26854E+02
   .32748E+01   .43697E+02  -.26947E+02
   .32748E+01   .44616E+02  -.26947E+02
   .32748E+01   .47601E+02  -.26947E+02
   .32748E+01   .53529E+02  -.26946E+02
   .32748E+01   .62347E+02  -.88125E+02
   .32749E+01   .71117E+02  -.61905E+02
   .32749E+01   .80769E+02  -.26944E+02
   .32750E+01   .72945E+02  -.26942E+02
   .32750E+01   .69582E+02  -.26941E+02
   .32751E+01   .67578E+02  -.26939E+02
   .32751E+01   .65825E+02  -.26937E+02
   .32752E+01   .64491E+02  -.26936E+02
   .32752E+01   .62600E+02  -.26934E+02
   .32753E+01   .54713E+02  -.26931E+02
   .32754E+01   .66762E+02  -.67770E+02
   .32755E+01   .78880E+02  -.26927E+02
   .32757E+01   .69034E+02  -.26921E+02
   .32759E+01   .67545E+02  -.26915E+02
   .32761E+01   .66826E+02  -.26909E+02
   .32764E+01   .66253E+02  -.26902E+02
   .32766E+01   .65772E+02  -.26894E+02
   .32768E+01   .65307E+02  -.26889E+02
   .32772E+01   .59004E+02  -.26876E+02
   .32773E+01   .65914E+02  -.49973E+02
   .32774E+01   .72861E+02  -.26872E+02
   .32777E+01   .66823E+02  -.26864E+02
   .32779E+01   .63715E+02  -.26856E+02
   .32780E+01   .66210E+02  -.36054E+02
   .32781E+01   .69096E+02  -.26852E+02
   .32782E+01   .67080E+02  -.26850E+02
   .32782E+01   .65672E+02  -.26848E+02
   .32783E+01   .66715E+02  -.31420E+02
   .32784E+01   .67681E+02  -.26845E+02
   .32784E+01   .67020E+02  -.26844E+02
   .32785E+01   .66177E+02  -.26843E+02
   .32785E+01   .67020E+02  -.31086E+02
   .32786E+01   .67861E+02  -.26840E+02
   .32786E+01   .67381E+02  -.26839E+02
   .32786E+01   .66920E+02  -.26838E+02
   .32787E+01   .67471E+02  -.29974E+02
   .32787E+01   .67759E+02  -.26836E+02
   .32787E+01   .67915E+02  -.26836E+02
   .32788E+01   .68230E+02  -.26835E+02
   .32788E+01   .68025E+02  -.27583E+02
   .32789E+01   .67831E+02  -.26833E+02
   .32796E+01   .66782E+02  -.26817E+02
   .32804E+01   .66573E+02  -.26800E+02
   .32812E+01   .66484E+02  -.26782E+02
   .32820E+01   .66438E+02  -.26765E+02
   .32830E+01   .66411E+02  -.26743E+02
   .32840E+01   .66403E+02  -.26722E+02
   .32860E+01   .66411E+02  -.26678E+02
   .32880E+01   .66433E+02  -.26647E+02
   .32900E+01   .66460E+02  -.26617E+02
   .32920E+01   .66490E+02  -.26586E+02
   .32940E+01   .66524E+02  -.26555E+02
   .32980E+01   .66591E+02  -.26502E+02
   .33020E+01   .66653E+02  -.26449E+02
   .33060E+01   .66717E+02  -.26404E+02
   .33100E+01   .66778E+02  -.26359E+02
   .33170E+01   .66884E+02  -.26289E+02
   .33250E+01   .67004E+02  -.26208E+02
   .33320E+01   .67106E+02  -.26138E+02
   .33400E+01   .67220E+02  -.26058E+02
   .33550E+01   .67422E+02  -.25900E+02
   .33700E+01   .67610E+02  -.25743E+02
   .33850E+01   .67786E+02  -.25588E+02
   .34000E+01   .67953E+02  -.25432E+02
   .34200E+01   .68163E+02  -.25230E+02
   .34500E+01   .68457E+02  -.24928E+02
   .34700E+01   .68642E+02  -.24733E+02
   .35000E+01   .68904E+02  -.24440E+02
   .35200E+01   .69071E+02  -.24249E+02
   .35500E+01   .69306E+02  -.23963E+02
   .35800E+01   .69527E+02  -.23686E+02
   .36000E+01   .69668E+02  -.23501E+02
   .36300E+01   .69870E+02  -.23233E+02
   .36500E+01   .69999E+02  -.23055E+02
   .36700E+01   .70123E+02  -.22882E+02
   .37000E+01   .70302E+02  -.22622E+02
   .37200E+01   .70417E+02  -.22455E+02
   .37500E+01   .70583E+02  -.22204E+02
   .37700E+01   .70690E+02  -.22042E+02
   .38000E+01   .70845E+02  -.21799E+02
   .38200E+01   .70945E+02  -.21639E+02
   .38500E+01   .71088E+02  -.21401E+02
   .38700E+01   .71179E+02  -.21247E+02
   .39000E+01   .71311E+02  -.21015E+02
   .39200E+01   .71397E+02  -.20866E+02
   .39500E+01   .71520E+02  -.20642E+02
   .39700E+01   .71600E+02  -.20497E+02
   .40000E+01   .71717E+02  -.20279E+02
   .40100E+01   .71755E+02  -.20207E+02
   .40200E+01   .71792E+02  -.20135E+02
   .40400E+01   .71864E+02  -.19993E+02
   .40600E+01   .71934E+02  -.19852E+02
   .40730E+01   .71979E+02  -.19761E+02
   .40860E+01   .72022E+02  -.19671E+02
   .41100E+01   .72100E+02  -.19508E+02
   .41400E+01   .72194E+02  -.19305E+02
   .41600E+01   .72254E+02  -.19173E+02
   .41900E+01   .72341E+02  -.18975E+02
   .42200E+01   .72425E+02  -.18784E+02
   .42500E+01   .72506E+02  -.18593E+02
   .42800E+01   .72583E+02  -.18408E+02
   .43000E+01   .72634E+02  -.18284E+02
   .43500E+01   .72753E+02  -.17987E+02
   .44000E+01   .72865E+02  -.17690E+02
   .44500E+01   .72971E+02  -.17409E+02
   .44700E+01   .73012E+02  -.17297E+02
   .45000E+01   .73073E+02  -.17128E+02
   .45400E+01   .73150E+02  -.16909E+02
   .45800E+01   .73221E+02  -.16690E+02
   .46200E+01   .73287E+02  -.16479E+02
   .46500E+01   .73334E+02  -.16321E+02
   .46900E+01   .73394E+02  -.16119E+02
   .47300E+01   .73451E+02  -.15916E+02
   .47700E+01   .73504E+02  -.15722E+02
   .48000E+01   .73543E+02  -.15576E+02
   .48500E+01   .73604E+02  -.15340E+02
   .49000E+01   .73659E+02  -.15103E+02
   .49500E+01   .73709E+02  -.14879E+02
   .50000E+01   .73755E+02  -.14654E+02
   .50200E+01   .73772E+02  -.14568E+02
   .50500E+01   .73797E+02  -.14439E+02
   .51000E+01   .73836E+02  -.14228E+02
   .51500E+01   .73872E+02  -.14026E+02
   .52000E+01   .73905E+02  -.13823E+02
   .52600E+01   .73941E+02  -.13591E+02
   .53100E+01   .73969E+02  -.13398E+02
   .53600E+01   .73994E+02  -.13215E+02
   .54147E+01   .74019E+02  -.13014E+02
   .54900E+01   .74050E+02  -.12749E+02
   .55600E+01   .74076E+02  -.12507E+02
   .56300E+01   .74097E+02  -.12273E+02
   .57000E+01   .74114E+02  -.12045E+02
   .57800E+01   .74129E+02  -.11794E+02
   .58500E+01   .74140E+02  -.11579E+02
   .59200E+01   .74146E+02  -.11370E+02
   .60000E+01   .74150E+02  -.11139E+02
   .60500E+01   .74151E+02  -.10999E+02
   .61000E+01   .74149E+02  -.10859E+02
   .62000E+01   .74143E+02  -.10590E+02
   .63000E+01   .74131E+02  -.10332E+02
   .64038E+01   .74114E+02  -.10075E+02
   .64800E+01   .74100E+02  -.98933E+01
   .65500E+01   .74084E+02  -.97310E+01
   .66300E+01   .74064E+02  -.95510E+01
   .67000E+01   .74045E+02  -.93979E+01
   .68500E+01   .74001E+02  -.90831E+01
   .70000E+01   .73951E+02  -.87854E+01
   .71000E+01   .73915E+02  -.85935E+01
   .72000E+01   .73876E+02  -.84083E+01
   .73100E+01   .73829E+02  -.82121E+01
   .74176E+01   .73781E+02  -.80274E+01
   .75600E+01   .73715E+02  -.77924E+01
   .77000E+01   .73644E+02  -.75711E+01
   .78500E+01   .73563E+02  -.73452E+01
   .80000E+01   .73477E+02  -.71301E+01
   .80200E+01   .73465E+02  -.71022E+01
   .80478E+01   .73449E+02  -.70637E+01
   .81700E+01   .73374E+02  -.68983E+01
   .83000E+01   .73290E+02  -.67292E+01
   .84000E+01   .73224E+02  -.66036E+01
   .85000E+01   .73155E+02  -.64819E+01
   .86500E+01   .73048E+02  -.63054E+01
   .88000E+01   .72933E+02  -.61365E+01
   .89000E+01   .72855E+02  -.60280E+01
   .90000E+01   .72773E+02  -.59227E+01
   .91500E+01   .72645E+02  -.57688E+01
   .93000E+01   .72507E+02  -.56214E+01
   .94000E+01   .72411E+02  -.55265E+01
   .95000E+01   .72310E+02  -.54342E+01
   .95700E+01   .72237E+02  -.53715E+01
   .96500E+01   .72150E+02  -.52999E+01
   .97200E+01   .72072E+02  -.52398E+01
   .98000E+01   .71978E+02  -.51710E+01
   .99000E+01   .71856E+02  -.50879E+01
   .99500E+01   .71792E+02  -.50473E+01
   .10000E+02   .71726E+02  -.50068E+01
   .10070E+02   .71631E+02  -.49516E+01
   .10150E+02   .71516E+02  -.48885E+01
   .10220E+02   .71411E+02  -.48353E+01
   .10300E+02   .71284E+02  -.47746E+01
   .10380E+02   .71149E+02  -.47161E+01
   .10450E+02   .71023E+02  -.46649E+01
   .10530E+02   .70870E+02  -.46086E+01
   .10600E+02   .70727E+02  -.45593E+01
   .10680E+02   .70551E+02  -.45050E+01
   .10710E+02   .70480E+02  -.44846E+01
   .10750E+02   .70383E+02  -.44575E+01
   .10790E+02   .70281E+02  -.44312E+01
   .10810E+02   .70228E+02  -.44180E+01
   .10830E+02   .70174E+02  -.44049E+01
   .10840E+02   .70146E+02  -.43983E+01
   .10850E+02   .70118E+02  -.43918E+01
   .10855E+02   .70103E+02  -.43885E+01
   .10860E+02   .70089E+02  -.43852E+01
   .10863E+02   .70080E+02  -.43832E+01
   .10865E+02   .70075E+02  -.43819E+01
   .10866E+02   .70070E+02  -.43809E+01
   .10867E+02   .70068E+02  -.43804E+01
   .10868E+02   .70066E+02  -.43799E+01
   .10868E+02   .70065E+02  -.43797E+01
   .10868E+02   .70065E+02  -.43796E+01
   .10869E+02   .70064E+02  -.43795E+01
   .10869E+02   .70064E+02  -.43794E+01
   .10869E+02   .70103E+02  -.43793E+01
   .10869E+02   .70102E+02  -.43792E+01
   .10869E+02   .70102E+02  -.43791E+01
   .10870E+02   .70101E+02  -.43790E+01
   .10870E+02   .70100E+02  -.43786E+01
   .10870E+02   .70099E+02  -.43783E+01
   .10871E+02   .70099E+02  -.43782E+01
   .10871E+02   .70099E+02  -.43781E+01
   .10871E+02   .70098E+02  -.43780E+01
   .10871E+02   .70098E+02  -.43779E+01
   .10871E+02   .70057E+02  -.43778E+01
   .10872E+02   .70056E+02  -.43776E+01
   .10872E+02   .70055E+02  -.43774E+01
   .10872E+02   .70054E+02  -.43773E+01
   .10873E+02   .70053E+02  -.43770E+01
   .10873E+02   .70051E+02  -.43767E+01
   .10874E+02   .70049E+02  -.43760E+01
   .10876E+02   .70043E+02  -.43747E+01
   .10878E+02   .70037E+02  -.43734E+01
   .10882E+02   .70025E+02  -.43707E+01
   .10885E+02   .70016E+02  -.43688E+01
   .10893E+02   .69992E+02  -.43635E+01
   .10900E+02   .69971E+02  -.43589E+01
   .10930E+02   .69878E+02  -.43400E+01
   .10950E+02   .69813E+02  -.43274E+01
   .11000E+02   .69642E+02  -.42958E+01
   .11030E+02   .69532E+02  -.42769E+01
   .11050E+02   .69455E+02  -.42642E+01
   .11080E+02   .69334E+02  -.42453E+01
   .11100E+02   .69249E+02  -.42327E+01
   .11130E+02   .69115E+02  -.42144E+01
   .11160E+02   .68971E+02  -.41962E+01
   .11190E+02   .68815E+02  -.41780E+01
   .11220E+02   .68647E+02  -.41597E+01
   .11230E+02   .68588E+02  -.41538E+01
   .11240E+02   .68526E+02  -.41479E+01
   .11260E+02   .68398E+02  -.41360E+01
   .11280E+02   .68261E+02  -.41242E+01
   .11310E+02   .68035E+02  -.41064E+01
   .11320E+02   .67953E+02  -.41006E+01
   .11330E+02   .67868E+02  -.40947E+01
   .11345E+02   .67733E+02  -.40860E+01
   .11360E+02   .67589E+02  -.40773E+01
   .11370E+02   .67486E+02  -.40715E+01
   .11380E+02   .67377E+02  -.40657E+01
   .11390E+02   .67262E+02  -.40599E+01
   .11400E+02   .67140E+02  -.40541E+01
   .11410E+02   .67009E+02  -.40484E+01
   .11420E+02   .66870E+02  -.40428E+01
   .11430E+02   .66719E+02  -.40371E+01
   .11440E+02   .66556E+02  -.40315E+01
   .11450E+02   .66377E+02  -.40259E+01
   .11460E+02   .66181E+02  -.40202E+01
   .11470E+02   .65962E+02  -.40146E+01
   .11475E+02   .65843E+02  -.40118E+01
   .11480E+02   .65716E+02  -.40089E+01
   .11485E+02   .65579E+02  -.40061E+01
   .11490E+02   .65433E+02  -.40033E+01
   .11495E+02   .65274E+02  -.40005E+01
   .11500E+02   .65101E+02  -.39976E+01
   .11505E+02   .64910E+02  -.39948E+01
   .11510E+02   .64699E+02  -.39920E+01
   .11515E+02   .64462E+02  -.39892E+01
   .11520E+02   .64190E+02  -.39863E+01
   .11523E+02   .64007E+02  -.39846E+01
   .11525E+02   .63874E+02  -.39835E+01
   .11528E+02   .63655E+02  -.39818E+01
   .11530E+02   .63494E+02  -.39807E+01
   .11533E+02   .63223E+02  -.39790E+01
   .11535E+02   .63019E+02  -.39779E+01
   .11538E+02   .62665E+02  -.39762E+01
   .11540E+02   .62387E+02  -.39750E+01
   .11542E+02   .62063E+02  -.39739E+01
   .11544E+02   .61675E+02  -.39728E+01
   .11546E+02   .61196E+02  -.39717E+01
   .11548E+02   .60575E+02  -.39705E+01
   .11550E+02   .59711E+02  -.39694E+01
   .11551E+02   .59126E+02  -.39688E+01
   .11552E+02   .58370E+02  -.39683E+01
   .11553E+02   .57338E+02  -.39677E+01
   .11554E+02   .55802E+02  -.39671E+01
   .11555E+02   .52760E+02  -.39665E+01
   .11556E+02   .39582E+02  -.39659E+01
   .11556E+02   .43694E+02  -.21768E+02
   .11557E+02   .47712E+02  -.39570E+02
   .11557E+02   .55384E+02  -.39656E+01
   .11557E+02   .36503E+02  -.39653E+01
   .11558E+02  -.21524E+02  -.39650E+01
   .11558E+02   .63408E+02  -.31472E+03
   .11558E+02   .14839E+03  -.39647E+01
   .11559E+02   .88138E+02  -.39643E+01
   .11560E+02   .76579E+02  -.39639E+01
   .11560E+02   .71881E+02  -.39636E+01
   .11561E+02   .69554E+02  -.39632E+01
   .11561E+02   .68174E+02  -.39629E+01
   .11562E+02   .67289E+02  -.39627E+01
   .11562E+02   .66534E+02  -.39625E+01
   .11563E+02   .65851E+02  -.39623E+01
   .11563E+02   .65415E+02  -.39621E+01
   .11563E+02   .64988E+02  -.39619E+01
   .11564E+02   .64580E+02  -.39618E+01
   .11564E+02   .64184E+02  -.39616E+01
   .11564E+02   .63794E+02  -.39615E+01
   .11564E+02   .63403E+02  -.39613E+01
   .11565E+02   .63003E+02  -.39611E+01
   .11565E+02   .62725E+02  -.39610E+01
   .11565E+02   .62542E+02  -.39609E+01
   .11565E+02   .62285E+02  -.39608E+01
   .11565E+02   .62082E+02  -.39608E+01
   .11566E+02   .61799E+02  -.39607E+01
   .11566E+02   .61622E+02  -.39606E+01
   .11566E+02   .61434E+02  -.39606E+01
   .11566E+02   .61160E+02  -.39605E+01
   .11566E+02   .60779E+02  -.39604E+01
   .11566E+02   .60517E+02  -.39604E+01
   .11566E+02   .60218E+02  -.39603E+01
   .11566E+02   .59473E+02  -.39602E+01
   .11567E+02   .58640E+02  -.39601E+01
   .11567E+02   .57846E+02  -.50105E+01
   .11567E+02   .57628E+02  -.63410E+01
   .11567E+02   .57854E+02  -.74402E+01
   .11567E+02   .58099E+02  -.74908E+01
   .11567E+02   .58800E+02  -.75323E+01
   .11567E+02   .59238E+02  -.98546E+01
   .11568E+02   .59928E+02  -.76639E+01
   .11568E+02   .59501E+02  -.77296E+01
   .11568E+02   .59271E+02  -.77624E+01
   .11568E+02   .58951E+02  -.77935E+01
   .11568E+02   .58098E+02  -.78555E+01
   .11568E+02   .60069E+02  -.15774E+02
   .11569E+02   .61811E+02  -.80039E+01
   .11569E+02   .61106E+02  -.80184E+01
   .11569E+02   .61524E+02  -.13200E+02
   .11569E+02   .61953E+02  -.81644E+01
   .11569E+02   .62691E+02  -.14394E+02
   .11570E+02   .63380E+02  -.82627E+01
   .11570E+02   .64214E+02  -.82995E+01
   .11570E+02   .63739E+02  -.88675E+01
   .11570E+02   .63257E+02  -.83797E+01
   .11571E+02   .62603E+02  -.84847E+01
   .11571E+02   .62392E+02  -.85916E+01
   .11571E+02   .62305E+02  -.86917E+01
   .11572E+02   .62270E+02  -.87838E+01
   .11573E+02   .62260E+02  -.88701E+01
   .11573E+02   .62273E+02  -.89537E+01
   .11573E+02   .62291E+02  -.90299E+01
   .11574E+02   .62321E+02  -.91041E+01
   .11575E+02   .62389E+02  -.92390E+01
   .11576E+02   .62470E+02  -.93626E+01
   .11577E+02   .62559E+02  -.94732E+01
   .11578E+02   .62651E+02  -.95749E+01
   .11579E+02   .62745E+02  -.96674E+01
   .11580E+02   .62847E+02  -.97502E+01
   .11581E+02   .62943E+02  -.98240E+01
   .11582E+02   .63046E+02  -.98940E+01
   .11583E+02   .63124E+02  -.99415E+01
   .11583E+02   .63195E+02  -.99832E+01
   .11585E+02   .63344E+02  -.10060E+02
   .11587E+02   .63540E+02  -.10140E+02
   .11588E+02   .63633E+02  -.10175E+02
   .11589E+02   .63728E+02  -.10203E+02
   .11590E+02   .63818E+02  -.10228E+02
   .11591E+02   .63909E+02  -.10246E+02
   .11593E+02   .64079E+02  -.10276E+02
   .11594E+02   .64202E+02  -.10292E+02
   .11596E+02   .64318E+02  -.10301E+02
   .11598E+02   .64464E+02  -.10304E+02
   .11600E+02   .64599E+02  -.10303E+02
   .11602E+02   .64726E+02  -.10295E+02
   .11604E+02   .64843E+02  -.10282E+02
   .11606E+02   .64951E+02  -.10267E+02
   .11608E+02   .65050E+02  -.10252E+02
   .11610E+02   .65143E+02  -.10236E+02
   .11612E+02   .65229E+02  -.10219E+02
   .11615E+02   .65346E+02  -.10195E+02
   .11619E+02   .65488E+02  -.10167E+02
   .11623E+02   .65611E+02  -.10140E+02
   .11627E+02   .65725E+02  -.10120E+02
   .11630E+02   .65801E+02  -.10106E+02
   .11634E+02   .65900E+02  -.10096E+02
   .11638E+02   .65992E+02  -.10086E+02
   .11645E+02   .66146E+02  -.10079E+02
   .11653E+02   .66315E+02  -.10076E+02
   .11660E+02   .66455E+02  -.10072E+02
   .11668E+02   .66610E+02  -.10065E+02
   .11675E+02   .66737E+02  -.10059E+02
   .11682E+02   .66859E+02  -.10047E+02
   .11690E+02   .66987E+02  -.10033E+02
   .11695E+02   .67063E+02  -.10023E+02
   .11700E+02   .67135E+02  -.10012E+02
   .11710E+02   .67267E+02  -.99907E+01
   .11718E+02   .67365E+02  -.99775E+01
   .11725E+02   .67447E+02  -.99660E+01
   .11733E+02   .67536E+02  -.99529E+01
   .11740E+02   .67610E+02  -.99414E+01
   .11755E+02   .67759E+02  -.99255E+01
   .11770E+02   .67901E+02  -.99096E+01
   .11785E+02   .68035E+02  -.98924E+01
   .11800E+02   .68163E+02  -.98751E+01
   .11810E+02   .68244E+02  -.98602E+01
   .11820E+02   .68320E+02  -.98453E+01
   .11835E+02   .68427E+02  -.98230E+01
   .11850E+02   .68527E+02  -.98006E+01
   .11870E+02   .68652E+02  -.97746E+01
   .11900E+02   .68825E+02  -.97355E+01
   .11920E+02   .68932E+02  -.97087E+01
   .11950E+02   .69080E+02  -.96685E+01
   .11970E+02   .69171E+02  -.96416E+01
   .12000E+02   .69297E+02  -.96014E+01
   .12030E+02   .69414E+02  -.95623E+01
   .12050E+02   .69486E+02  -.95362E+01
   .12070E+02   .69554E+02  -.95101E+01
   .12100E+02   .69650E+02  -.94710E+01
   .12120E+02   .69710E+02  -.94449E+01
   .12150E+02   .69795E+02  -.94057E+01
   .12170E+02   .69847E+02  -.93797E+01
   .12200E+02   .69921E+02  -.93405E+01
   .12230E+02   .69989E+02  -.93032E+01
   .12260E+02   .70052E+02  -.92659E+01
   .12290E+02   .70111E+02  -.92286E+01
   .12320E+02   .70164E+02  -.91912E+01
   .12350E+02   .70213E+02  -.91539E+01
   .12380E+02   .70258E+02  -.91166E+01
   .12410E+02   .70299E+02  -.90793E+01
   .12437E+02   .70333E+02  -.90453E+01
   .12470E+02   .70369E+02  -.90063E+01
   .12500E+02   .70397E+02  -.89705E+01
   .12530E+02   .70422E+02  -.89347E+01
   .12570E+02   .70449E+02  -.88869E+01
   .12600E+02   .70465E+02  -.88511E+01
   .12630E+02   .70477E+02  -.88153E+01
   .12660E+02   .70485E+02  -.87795E+01
   .12700E+02   .70489E+02  -.87318E+01
   .12720E+02   .70488E+02  -.87091E+01
   .12750E+02   .70483E+02  -.86750E+01
   .12800E+02   .70465E+02  -.86182E+01
   .12820E+02   .70453E+02  -.85955E+01
   .12850E+02   .70432E+02  -.85614E+01
   .12880E+02   .70405E+02  -.85273E+01
   .12900E+02   .70383E+02  -.85046E+01
   .12930E+02   .70344E+02  -.84712E+01
   .12950E+02   .70314E+02  -.84489E+01
   .12970E+02   .70280E+02  -.84266E+01
   .13000E+02   .70221E+02  -.83932E+01
   .13020E+02   .70175E+02  -.83710E+01
   .13050E+02   .70095E+02  -.83375E+01
   .13070E+02   .70033E+02  -.83153E+01
   .13085E+02   .69982E+02  -.82986E+01
   .13100E+02   .69925E+02  -.82819E+01
   .13115E+02   .69863E+02  -.82658E+01
   .13130E+02   .69793E+02  -.82498E+01
   .13140E+02   .69742E+02  -.82391E+01
   .13150E+02   .69688E+02  -.82285E+01
   .13160E+02   .69629E+02  -.82178E+01
   .13170E+02   .69564E+02  -.82071E+01
   .13185E+02   .69456E+02  -.81911E+01
   .13200E+02   .69331E+02  -.81751E+01
   .13210E+02   .69235E+02  -.81644E+01
   .13215E+02   .69183E+02  -.81590E+01
   .13220E+02   .69127E+02  -.81537E+01
   .13227E+02   .69042E+02  -.81462E+01
   .13235E+02   .68934E+02  -.81377E+01
   .13243E+02   .68811E+02  -.81291E+01
   .13250E+02   .68686E+02  -.81217E+01
   .13258E+02   .68520E+02  -.81131E+01
   .13262E+02   .68424E+02  -.81088E+01
   .13265E+02   .68344E+02  -.81056E+01
   .13269E+02   .68226E+02  -.81014E+01
   .13273E+02   .68091E+02  -.80971E+01
   .13277E+02   .67933E+02  -.80928E+01
   .13280E+02   .67794E+02  -.80896E+01
   .13283E+02   .67630E+02  -.80864E+01
   .13286E+02   .67434E+02  -.80832E+01
   .13289E+02   .67188E+02  -.80800E+01
   .13292E+02   .66862E+02  -.80768E+01
   .13293E+02   .66652E+02  -.80752E+01
   .13295E+02   .66392E+02  -.80736E+01
   .13297E+02   .66058E+02  -.80720E+01
   .13298E+02   .65601E+02  -.80704E+01
   .13300E+02   .64925E+02  -.80688E+01
   .13301E+02   .63774E+02  -.80672E+01
   .13303E+02   .59488E+02  -.80651E+01
   .13304E+02   .20022E+02  -.80634E+01
   .13305E+02   .27520E+02  -.63586E+02
   .13305E+02   .47364E+02  -.11911E+03
   .13305E+02   .67203E+02  -.17463E+03
   .13305E+02   .11438E+03  -.80629E+01
   .13306E+02   .81267E+02  -.80622E+01
   .13307E+02   .75361E+02  -.80614E+01
   .13307E+02   .72601E+02  -.80606E+01
   .13308E+02   .71271E+02  -.80598E+01
   .13309E+02   .70602E+02  -.80593E+01
   .13309E+02   .69975E+02  -.80586E+01
   .13310E+02   .69467E+02  -.80580E+01
   .13310E+02   .69093E+02  -.80575E+01
   .13311E+02   .68836E+02  -.80571E+01
   .13311E+02   .68645E+02  -.80568E+01
   .13311E+02   .68459E+02  -.80565E+01
   .13312E+02   .68214E+02  -.80561E+01
   .13312E+02   .68029E+02  -.80557E+01
   .13312E+02   .67902E+02  -.80555E+01
   .13312E+02   .67771E+02  -.80553E+01
   .13312E+02   .67635E+02  -.80551E+01
   .13313E+02   .67490E+02  -.80549E+01
   .13313E+02   .67386E+02  -.80548E+01
   .13313E+02   .67247E+02  -.80546E+01
   .13313E+02   .67122E+02  -.80545E+01
   .13313E+02   .66953E+02  -.80543E+01
   .13313E+02   .66768E+02  -.80541E+01
   .13314E+02   .66448E+02  -.80540E+01
   .13314E+02   .66171E+02  -.81723E+01
   .13314E+02   .65893E+02  -.85452E+01
   .13314E+02   .65763E+02  -.89325E+01
   .13314E+02   .65849E+02  -.93374E+01
   .13314E+02   .65973E+02  -.96305E+01
   .13314E+02   .66160E+02  -.96631E+01
   .13315E+02   .66300E+02  -.96959E+01
   .13315E+02   .66328E+02  -.97264E+01
   .13315E+02   .66367E+02  -.97461E+01
   .13315E+02   .66348E+02  -.97856E+01
   .13315E+02   .66310E+02  -.98273E+01
   .13315E+02   .66273E+02  -.98482E+01
   .13316E+02   .66268E+02  -.98550E+01
   .13316E+02   .66317E+02  -.98736E+01
   .13316E+02   .66366E+02  -.10464E+02
   .13316E+02   .66368E+02  -.99416E+01
   .13316E+02   .66066E+02  -.99720E+01
   .13316E+02   .65841E+02  -.10002E+02
   .13317E+02   .66571E+02  -.13389E+02
   .13317E+02   .67464E+02  -.10082E+02
   .13317E+02   .66776E+02  -.10106E+02
   .13317E+02   .66416E+02  -.10129E+02
   .13318E+02   .67274E+02  -.13743E+02
   .13318E+02   .68007E+02  -.10188E+02
   .13318E+02   .68182E+02  -.10199E+02
   .13318E+02   .68020E+02  -.10927E+02
   .13318E+02   .67924E+02  -.10253E+02
   .13319E+02   .67531E+02  -.10332E+02
   .13320E+02   .67441E+02  -.10404E+02
   .13320E+02   .67411E+02  -.10471E+02
   .13321E+02   .67410E+02  -.10535E+02
   .13322E+02   .67421E+02  -.10599E+02
   .13323E+02   .67441E+02  -.10652E+02
   .13324E+02   .67497E+02  -.10754E+02
   .13325E+02   .67563E+02  -.10841E+02
   .13327E+02   .67636E+02  -.10916E+02
   .13328E+02   .67712E+02  -.10979E+02
   .13330E+02   .67789E+02  -.11034E+02
   .13333E+02   .67944E+02  -.11116E+02
   .13335E+02   .68044E+02  -.11156E+02
   .13338E+02   .68184E+02  -.11195E+02
   .13340E+02   .68274E+02  -.11211E+02
   .13343E+02   .68397E+02  -.11222E+02
   .13345E+02   .68472E+02  -.11223E+02
   .13347E+02   .68543E+02  -.11221E+02
   .13350E+02   .68638E+02  -.11213E+02
   .13352E+02   .68695E+02  -.11204E+02
   .13354E+02   .68747E+02  -.11195E+02
   .13356E+02   .68796E+02  -.11186E+02
   .13358E+02   .68841E+02  -.11177E+02
   .13362E+02   .68922E+02  -.11160E+02
   .13365E+02   .68978E+02  -.11147E+02
   .13369E+02   .69043E+02  -.11134E+02
   .13373E+02   .69100E+02  -.11120E+02
   .13377E+02   .69156E+02  -.11111E+02
   .13380E+02   .69194E+02  -.11103E+02
   .13388E+02   .69290E+02  -.11094E+02
   .13395E+02   .69369E+02  -.11088E+02
   .13403E+02   .69455E+02  -.11082E+02
   .13410E+02   .69527E+02  -.11076E+02
   .13420E+02   .69625E+02  -.11061E+02
   .13430E+02   .69715E+02  -.11047E+02
   .13440E+02   .69795E+02  -.11032E+02
   .13450E+02   .69869E+02  -.11017E+02
   .13458E+02   .69922E+02  -.11007E+02
   .13465E+02   .69964E+02  -.10997E+02
   .13480E+02   .70051E+02  -.10977E+02
   .13500E+02   .70157E+02  -.10951E+02
   .13520E+02   .70251E+02  -.10925E+02
   .13535E+02   .70316E+02  -.10905E+02
   .13550E+02   .70374E+02  -.10884E+02
   .13570E+02   .70443E+02  -.10857E+02
   .13589E+02   .70500E+02  -.10833E+02
   .13604E+02   .70540E+02  -.10813E+02
   .13620E+02   .70578E+02  -.10793E+02
   .13635E+02   .70608E+02  -.10774E+02
   .13650E+02   .70635E+02  -.10755E+02
   .13665E+02   .70657E+02  -.10736E+02
   .13680E+02   .70673E+02  -.10717E+02
   .13700E+02   .70688E+02  -.10692E+02
   .13720E+02   .70691E+02  -.10666E+02
   .13735E+02   .70686E+02  -.10647E+02
   .13743E+02   .70679E+02  -.10637E+02
   .13750E+02   .70671E+02  -.10628E+02
   .13760E+02   .70655E+02  -.10615E+02
   .13770E+02   .70633E+02  -.10603E+02
   .13780E+02   .70605E+02  -.10590E+02
   .13790E+02   .70567E+02  -.10577E+02
   .13798E+02   .70530E+02  -.10567E+02
   .13805E+02   .70490E+02  -.10558E+02
   .13813E+02   .70433E+02  -.10548E+02
   .13817E+02   .70400E+02  -.10543E+02
   .13820E+02   .70372E+02  -.10539E+02
   .13825E+02   .70319E+02  -.10533E+02
   .13830E+02   .70256E+02  -.10526E+02
   .13835E+02   .70180E+02  -.10520E+02
   .13838E+02   .70126E+02  -.10516E+02
   .13840E+02   .70085E+02  -.10514E+02
   .13843E+02   .70016E+02  -.10510E+02
   .13845E+02   .69963E+02  -.10507E+02
   .13847E+02   .69904E+02  -.10505E+02
   .13849E+02   .69835E+02  -.10502E+02
   .13852E+02   .69710E+02  -.10498E+02
   .13854E+02   .69605E+02  -.10496E+02
   .13855E+02   .69542E+02  -.10495E+02
   .13856E+02   .69470E+02  -.10493E+02
   .13857E+02   .69340E+02  -.10492E+02
   .13859E+02   .68989E+02  -.10490E+02
   .13859E+02   .69119E+02  -.11053E+02
   .13859E+02   .69200E+02  -.11335E+02
   .13859E+02   .69404E+02  -.10489E+02
   .13860E+02   .69138E+02  -.10488E+02
   .13860E+02   .68803E+02  -.10488E+02
   .13861E+02   .69139E+02  -.11781E+02
   .13861E+02   .69475E+02  -.10487E+02
   .13862E+02   .69016E+02  -.10486E+02
   .13863E+02   .68781E+02  -.10485E+02
   .13863E+02   .68681E+02  -.10484E+02
   .13864E+02   .68572E+02  -.10483E+02
   .13864E+02   .68451E+02  -.10483E+02
   .13865E+02   .68342E+02  -.10483E+02
   .13865E+02   .68196E+02  -.10482E+02
   .13865E+02   .68014E+02  -.10482E+02
   .13866E+02   .67794E+02  -.10481E+02
   .13866E+02   .67721E+02  -.10481E+02
   .13866E+02   .67595E+02  -.10481E+02
   .13866E+02   .67354E+02  -.10480E+02
   .13867E+02   .67054E+02  -.10480E+02
   .13867E+02   .66808E+02  -.10480E+02
   .13867E+02   .66528E+02  -.10479E+02
   .13867E+02   .66332E+02  -.10479E+02
   .13867E+02   .66133E+02  -.10479E+02
   .13867E+02   .65905E+02  -.10479E+02
   .13867E+02   .65611E+02  -.10479E+02
   .13868E+02   .64962E+02  -.10479E+02
   .13868E+02   .64462E+02  -.10479E+02
   .13868E+02   .63098E+02  -.10478E+02
   .13868E+02   .61950E+02  -.10478E+02
   .13868E+02   .60252E+02  -.10540E+02
   .13868E+02   .61166E+02  -.10649E+02
   .13868E+02   .62782E+02  -.10944E+02
   .13868E+02   .64303E+02  -.29288E+02
   .13869E+02   .67479E+02  -.12271E+02
   .13869E+02   .68626E+02  -.23273E+02
   .13869E+02   .70227E+02  -.28738E+02
   .13869E+02   .71834E+02  -.23269E+02
   .13869E+02   .74339E+02  -.12329E+02
   .13869E+02   .72993E+02  -.12327E+02
   .13870E+02   .71531E+02  -.12321E+02
   .13870E+02   .70697E+02  -.12316E+02
   .13870E+02   .70388E+02  -.12313E+02
   .13870E+02   .69801E+02  -.12309E+02
   .13870E+02   .69180E+02  -.12304E+02
   .13870E+02   .68792E+02  -.12302E+02
   .13871E+02   .67781E+02  -.12297E+02
   .13871E+02   .68598E+02  -.14953E+02
   .13871E+02   .70176E+02  -.20266E+02
   .13871E+02   .71726E+02  -.12284E+02
   .13871E+02   .70584E+02  -.12281E+02
   .13871E+02   .69860E+02  -.12278E+02
   .13872E+02   .70779E+02  -.17431E+02
   .13872E+02   .71535E+02  -.12268E+02
   .13872E+02   .71850E+02  -.12268E+02
   .13872E+02   .71640E+02  -.14383E+02
   .13873E+02   .71838E+02  -.12257E+02
   .13873E+02   .71279E+02  -.12252E+02
   .13873E+02   .70965E+02  -.12245E+02
   .13874E+02   .70795E+02  -.12238E+02
   .13874E+02   .70688E+02  -.12231E+02
   .13875E+02   .70600E+02  -.12222E+02
   .13875E+02   .70542E+02  -.12213E+02
   .13876E+02   .70475E+02  -.12195E+02
   .13877E+02   .70451E+02  -.12185E+02
   .13877E+02   .70434E+02  -.12174E+02
   .13878E+02   .70427E+02  -.12163E+02
   .13879E+02   .70425E+02  -.12153E+02
   .13880E+02   .70428E+02  -.12143E+02
   .13881E+02   .70435E+02  -.12132E+02
   .13882E+02   .70444E+02  -.12122E+02
   .13883E+02   .70454E+02  -.12112E+02
   .13884E+02   .70471E+02  -.12101E+02
   .13886E+02   .70489E+02  -.12089E+02
   .13888E+02   .70515E+02  -.12077E+02
   .13890E+02   .70539E+02  -.12065E+02
   .13892E+02   .70557E+02  -.12061E+02
   .13893E+02   .70576E+02  -.12056E+02
   .13897E+02   .70626E+02  -.12046E+02
   .13900E+02   .70659E+02  -.12038E+02
   .13904E+02   .70704E+02  -.12034E+02
   .13908E+02   .70748E+02  -.12031E+02
   .13915E+02   .70824E+02  -.12029E+02
   .13923E+02   .70910E+02  -.12025E+02
   .13930E+02   .70979E+02  -.12021E+02
   .13938E+02   .71054E+02  -.12014E+02
   .13945E+02   .71117E+02  -.12007E+02
   .13953E+02   .71188E+02  -.11999E+02
   .13960E+02   .71245E+02  -.11993E+02
   .13968E+02   .71305E+02  -.11981E+02
   .13975E+02   .71355E+02  -.11972E+02
   .13983E+02   .71408E+02  -.11960E+02
   .13990E+02   .71452E+02  -.11950E+02
   .14005E+02   .71544E+02  -.11932E+02
   .14020E+02   .71630E+02  -.11913E+02
   .14035E+02   .71712E+02  -.11895E+02
   .14050E+02   .71791E+02  -.11877E+02
   .14060E+02   .71839E+02  -.11864E+02
   .14070E+02   .71887E+02  -.11851E+02
   .14085E+02   .71955E+02  -.11832E+02
   .14100E+02   .72021E+02  -.11812E+02
   .14120E+02   .72105E+02  -.11787E+02
   .14140E+02   .72185E+02  -.11762E+02
   .14160E+02   .72262E+02  -.11738E+02
   .14180E+02   .72336E+02  -.11712E+02
   .14210E+02   .72441E+02  -.11675E+02
   .14250E+02   .72572E+02  -.11625E+02
   .14290E+02   .72696E+02  -.11578E+02
   .14330E+02   .72813E+02  -.11530E+02
   .14370E+02   .72925E+02  -.11483E+02
   .14400E+02   .73007E+02  -.11447E+02
   .14430E+02   .73085E+02  -.11411E+02
   .14470E+02   .73185E+02  -.11363E+02
   .14510E+02   .73280E+02  -.11315E+02
   .14550E+02   .73371E+02  -.11268E+02
   .14580E+02   .73437E+02  -.11232E+02
   .14620E+02   .73522E+02  -.11184E+02
   .14660E+02   .73605E+02  -.11136E+02
   .14700E+02   .73684E+02  -.11088E+02
   .14730E+02   .73742E+02  -.11054E+02
   .14770E+02   .73816E+02  -.11008E+02
   .14810E+02   .73889E+02  -.10962E+02
   .14850E+02   .73959E+02  -.10917E+02
   .14880E+02   .74011E+02  -.10883E+02
   .14920E+02   .74078E+02  -.10839E+02
   .14960E+02   .74143E+02  -.10794E+02
   .15000E+02   .74207E+02  -.10749E+02
   .15070E+02   .74314E+02  -.10673E+02
   .15150E+02   .74430E+02  -.10585E+02
   .15220E+02   .74527E+02  -.10508E+02
   .15300E+02   .74632E+02  -.10421E+02
   .15380E+02   .74732E+02  -.10337E+02
   .15450E+02   .74816E+02  -.10265E+02
   .15530E+02   .74908E+02  -.10181E+02
   .15600E+02   .74985E+02  -.10108E+02
   .15680E+02   .75070E+02  -.10029E+02
   .15750E+02   .75141E+02  -.99597E+01
   .15830E+02   .75220E+02  -.98805E+01
   .15900E+02   .75286E+02  -.98111E+01
   .15970E+02   .75349E+02  -.97450E+01
   .16050E+02   .75420E+02  -.96694E+01
   .16130E+02   .75487E+02  -.95939E+01
   .16200E+02   .75544E+02  -.95278E+01
   .16280E+02   .75608E+02  -.94558E+01
   .16350E+02   .75661E+02  -.93927E+01
   .16430E+02   .75720E+02  -.93207E+01
   .16500E+02   .75771E+02  -.92577E+01
   .16570E+02   .75819E+02  -.91971E+01
   .16650E+02   .75873E+02  -.91279E+01
   .16730E+02   .75925E+02  -.90587E+01
   .16800E+02   .75969E+02  -.89981E+01
   .16880E+02   .76018E+02  -.89320E+01
   .16950E+02   .76059E+02  -.88742E+01
   .17020E+02   .76099E+02  -.88164E+01
   .17100E+02   .76143E+02  -.87503E+01
   .17200E+02   .76197E+02  -.86717E+01
   .17300E+02   .76249E+02  -.85930E+01
   .17390E+02   .76294E+02  -.85223E+01
   .17479E+02   .76336E+02  -.84523E+01
   .17540E+02   .76365E+02  -.84067E+01
   .17600E+02   .76392E+02  -.83618E+01
   .17650E+02   .76415E+02  -.83245E+01
   .17700E+02   .76437E+02  -.82871E+01
   .17750E+02   .76458E+02  -.82497E+01
   .17800E+02   .76479E+02  -.82123E+01
   .17880E+02   .76513E+02  -.81548E+01
   .17950E+02   .76541E+02  -.81045E+01
   .18020E+02   .76569E+02  -.80542E+01
   .18100E+02   .76600E+02  -.79967E+01
   .18180E+02   .76630E+02  -.79410E+01
   .18250E+02   .76655E+02  -.78923E+01
   .18320E+02   .76679E+02  -.78436E+01
   .18400E+02   .76707E+02  -.77879E+01
   .18470E+02   .76730E+02  -.77411E+01
   .18550E+02   .76756E+02  -.76877E+01
   .18630E+02   .76781E+02  -.76343E+01
   .18700E+02   .76802E+02  -.75875E+01
   .18800E+02   .76831E+02  -.75237E+01
   .18900E+02   .76859E+02  -.74600E+01
   .18950E+02   .76873E+02  -.74281E+01
   .19000E+02   .76887E+02  -.73962E+01
   .19050E+02   .76900E+02  -.73643E+01
   .19100E+02   .76913E+02  -.73325E+01
   .19180E+02   .76933E+02  -.72836E+01
   .19250E+02   .76951E+02  -.72409E+01
   .19320E+02   .76967E+02  -.71982E+01
   .19400E+02   .76986E+02  -.71494E+01
   .19470E+02   .77002E+02  -.71084E+01
   .19550E+02   .77020E+02  -.70616E+01
   .19630E+02   .77037E+02  -.70147E+01
   .19700E+02   .77051E+02  -.69737E+01
   .19780E+02   .77067E+02  -.69286E+01
   .19850E+02   .77081E+02  -.68892E+01
   .19930E+02   .77096E+02  -.68442E+01
   .20000E+02   .77109E+02  -.68048E+01
   .20070E+02   .77122E+02  -.67669E+01
   .20150E+02   .77136E+02  -.67236E+01
   .20230E+02   .77150E+02  -.66803E+01
   .20300E+02   .77162E+02  -.66424E+01
   .20380E+02   .77175E+02  -.66007E+01
   .20450E+02   .77186E+02  -.65643E+01
   .20520E+02   .77196E+02  -.65278E+01
   .20600E+02   .77208E+02  -.64861E+01
   .20680E+02   .77220E+02  -.64461E+01
   .20750E+02   .77230E+02  -.64111E+01
   .20820E+02   .77239E+02  -.63761E+01
   .20900E+02   .77250E+02  -.63360E+01
   .21000E+02   .77263E+02  -.62877E+01
   .21100E+02   .77276E+02  -.62394E+01
   .21250E+02   .77294E+02  -.61691E+01
   .21400E+02   .77312E+02  -.60989E+01
   .21500E+02   .77323E+02  -.60531E+01
   .21600E+02   .77334E+02  -.60073E+01
   .21750E+02   .77350E+02  -.59401E+01
   .21900E+02   .77365E+02  -.58729E+01
   .22030E+02   .77376E+02  -.58166E+01
   .22100E+02   .77383E+02  -.57863E+01
   .22163E+02   .77388E+02  -.57590E+01
   .22300E+02   .77399E+02  -.57014E+01
   .22400E+02   .77408E+02  -.56593E+01
   .22500E+02   .77415E+02  -.56173E+01
   .22600E+02   .77422E+02  -.55769E+01
   .22700E+02   .77429E+02  -.55365E+01
   .22800E+02   .77436E+02  -.54960E+01
   .22900E+02   .77442E+02  -.54556E+01
   .23100E+02   .77453E+02  -.53784E+01
   .23300E+02   .77463E+02  -.53012E+01
   .23450E+02   .77470E+02  -.52456E+01
   .23600E+02   .77477E+02  -.51899E+01
   .23800E+02   .77485E+02  -.51186E+01
   .24000E+02   .77492E+02  -.50473E+01
   .24150E+02   .77496E+02  -.49960E+01
   .24300E+02   .77501E+02  -.49447E+01
   .24500E+02   .77506E+02  -.48789E+01
   .24700E+02   .77511E+02  -.48131E+01
   .24850E+02   .77514E+02  -.47656E+01
   .25000E+02   .77517E+02  -.47180E+01
   .25300E+02   .77521E+02  -.46259E+01
   .25600E+02   .77525E+02  -.45365E+01
   .25900E+02   .77527E+02  -.44499E+01
   .26200E+02   .77529E+02  -.43660E+01
   .26500E+02   .77530E+02  -.42845E+01
   .26800E+02   .77530E+02  -.42048E+01
   .27100E+02   .77529E+02  -.41274E+01
   .27470E+02   .77526E+02  -.40350E+01
   .27600E+02   .77525E+02  -.40037E+01
   .27800E+02   .77524E+02  -.39554E+01
   .28100E+02   .77521E+02  -.38851E+01
   .28400E+02   .77517E+02  -.38163E+01
   .28700E+02   .77513E+02  -.37495E+01
   .29100E+02   .77507E+02  -.36631E+01
   .29400E+02   .77501E+02  -.36000E+01
   .29700E+02   .77495E+02  -.35387E+01
   .30000E+02   .77489E+02  -.34790E+01
   .30400E+02   .77480E+02  -.34016E+01
   .30800E+02   .77470E+02  -.33269E+01
   .31200E+02   .77460E+02  -.32548E+01
   .31500E+02   .77452E+02  -.32024E+01
   .31900E+02   .77441E+02  -.31345E+01
   .32300E+02   .77430E+02  -.30689E+01
   .32600E+02   .77421E+02  -.30211E+01
   .33000E+02   .77409E+02  -.29592E+01
   .33400E+02   .77397E+02  -.28991E+01
   .33800E+02   .77384E+02  -.28408E+01
   .34100E+02   .77375E+02  -.27983E+01
   .34500E+02   .77362E+02  -.27433E+01
   .34900E+02   .77350E+02  -.26899E+01
   .35300E+02   .77337E+02  -.26378E+01
   .35700E+02   .77324E+02  -.25873E+01
   .36030E+02   .77313E+02  -.25467E+01
   .36500E+02   .77297E+02  -.24906E+01
   .37000E+02   .77280E+02  -.24331E+01
   .37500E+02   .77263E+02  -.23776E+01
   .38000E+02   .77246E+02  -.23241E+01
   .38500E+02   .77228E+02  -.22723E+01
   .39000E+02   .77211E+02  -.22223E+01
   .39500E+02   .77194E+02  -.21740E+01
   .40000E+02   .77176E+02  -.21274E+01
   .40800E+02   .77149E+02  -.20556E+01
   .41500E+02   .77124E+02  -.19958E+01
   .42300E+02   .77096E+02  -.19309E+01
   .43000E+02   .77072E+02  -.18767E+01
   .43800E+02   .77044E+02  -.18177E+01
   .44500E+02   .77019E+02  -.17684E+01
   .45300E+02   .76992E+02  -.17145E+01
   .46000E+02   .76967E+02  -.16693E+01
   .46130E+02   .76963E+02  -.16611E+01
   .46260E+02   .76958E+02  -.16530E+01
   .47100E+02   .76929E+02  -.16020E+01
   .48000E+02   .76897E+02  -.15500E+01
   .49000E+02   .76862E+02  -.14953E+01
   .49500E+02   .76845E+02  -.14691E+01
   .50000E+02   .76827E+02  -.14436E+01
   .51000E+02   .76792E+02  -.13943E+01
   .52000E+02   .76757E+02  -.13477E+01
   .53000E+02   .76721E+02  -.13034E+01
   .54000E+02   .76684E+02  -.12614E+01
   .55000E+02   .76648E+02  -.12215E+01
   .56000E+02   .76610E+02  -.11833E+01
   .56800E+02   .76580E+02  -.11540E+01
   .57530E+02   .76552E+02  -.11283E+01
   .58000E+02   .76533E+02  -.11122E+01
   .58500E+02   .76513E+02  -.10955E+01
   .59540E+02   .76471E+02  -.10620E+01
   .59800E+02   .76460E+02  -.10538E+01
   .60000E+02   .76452E+02  -.10476E+01
   .60800E+02   .76418E+02  -.10234E+01
   .61500E+02   .76387E+02  -.10028E+01
   .62300E+02   .76351E+02  -.98015E+00
   .63000E+02   .76318E+02  -.96095E+00
   .63500E+02   .76294E+02  -.94774E+00
   .64000E+02   .76269E+02  -.93453E+00
   .64500E+02   .76244E+02  -.92189E+00
   .65000E+02   .76218E+02  -.90924E+00
   .65500E+02   .76191E+02  -.89706E+00
   .65900E+02   .76169E+02  -.88733E+00
   .66400E+02   .76140E+02  -.87562E+00
   .66830E+02   .76114E+02  -.86554E+00
   .67100E+02   .76098E+02  -.85941E+00
   .67400E+02   .76079E+02  -.85260E+00
   .67700E+02   .76060E+02  -.84596E+00
   .68000E+02   .76040E+02  -.83931E+00
   .68500E+02   .76007E+02  -.82858E+00
   .69000E+02   .75971E+02  -.81785E+00
   .69500E+02   .75934E+02  -.80755E+00
   .70000E+02   .75894E+02  -.79724E+00
   .70500E+02   .75852E+02  -.78732E+00
   .71000E+02   .75808E+02  -.77739E+00
   .71300E+02   .75780E+02  -.77166E+00
   .71500E+02   .75760E+02  -.76784E+00
   .71800E+02   .75730E+02  -.76211E+00
   .72000E+02   .75710E+02  -.75829E+00
   .72400E+02   .75666E+02  -.75092E+00
   .72800E+02   .75619E+02  -.74354E+00
   .73200E+02   .75569E+02  -.73637E+00
   .73500E+02   .75529E+02  -.73100E+00
   .73700E+02   .75501E+02  -.72751E+00
   .73900E+02   .75471E+02  -.72402E+00
   .74050E+02   .75449E+02  -.72140E+00
   .74200E+02   .75425E+02  -.71878E+00
   .74400E+02   .75392E+02  -.71539E+00
   .74600E+02   .75357E+02  -.71199E+00
   .74800E+02   .75321E+02  -.70859E+00
   .74960E+02   .75290E+02  -.70587E+00
   .75080E+02   .75267E+02  -.70389E+00
   .75200E+02   .75242E+02  -.70190E+00
   .75350E+02   .75210E+02  -.69941E+00
   .75500E+02   .75176E+02  -.69692E+00
   .75650E+02   .75140E+02  -.69449E+00
   .75800E+02   .75103E+02  -.69204E+00
   .75900E+02   .75077E+02  -.69042E+00
   .76000E+02   .75049E+02  -.68879E+00
   .76150E+02   .75007E+02  -.68642E+00
   .76300E+02   .74961E+02  -.68405E+00
   .76450E+02   .74912E+02  -.68169E+00
   .76600E+02   .74860E+02  -.67932E+00
   .76750E+02   .74803E+02  -.67695E+00
   .76900E+02   .74742E+02  -.67458E+00
   .77010E+02   .74693E+02  -.67284E+00
   .77110E+02   .74646E+02  -.67126E+00
   .77210E+02   .74595E+02  -.66974E+00
   .77300E+02   .74546E+02  -.66836E+00
   .77400E+02   .74488E+02  -.66684E+00
   .77500E+02   .74424E+02  -.66531E+00
   .77550E+02   .74390E+02  -.66455E+00
   .77600E+02   .74354E+02  -.66378E+00
   .77650E+02   .74317E+02  -.66302E+00
   .77700E+02   .74278E+02  -.66226E+00
   .77750E+02   .74236E+02  -.66149E+00
   .77800E+02   .74192E+02  -.66073E+00
   .77850E+02   .74145E+02  -.65997E+00
   .77900E+02   .74095E+02  -.65921E+00
   .77950E+02   .74042E+02  -.65846E+00
   .78000E+02   .73984E+02  -.65772E+00
   .78050E+02   .73922E+02  -.65698E+00
   .78100E+02   .73854E+02  -.65624E+00
   .78130E+02   .73811E+02  -.65579E+00
   .78150E+02   .73780E+02  -.65549E+00
   .78170E+02   .73748E+02  -.65520E+00
   .78200E+02   .73698E+02  -.65475E+00
   .78220E+02   .73662E+02  -.65446E+00
   .78250E+02   .73605E+02  -.65401E+00
   .78280E+02   .73544E+02  -.65356E+00
   .78300E+02   .73500E+02  -.65327E+00
   .78330E+02   .73429E+02  -.65282E+00
   .78350E+02   .73378E+02  -.65253E+00
   .78380E+02   .73295E+02  -.65208E+00
   .78400E+02   .73234E+02  -.65178E+00
   .78410E+02   .73202E+02  -.65163E+00
   .78420E+02   .73168E+02  -.65149E+00
   .78435E+02   .73115E+02  -.65126E+00
   .78450E+02   .73057E+02  -.65104E+00
   .78460E+02   .73016E+02  -.65089E+00
   .78470E+02   .72974E+02  -.65074E+00
   .78485E+02   .72904E+02  -.65052E+00
   .78500E+02   .72828E+02  -.65030E+00
   .78508E+02   .72785E+02  -.65018E+00
   .78515E+02   .72745E+02  -.65008E+00
   .78523E+02   .72696E+02  -.64996E+00
   .78530E+02   .72651E+02  -.64985E+00
   .78540E+02   .72582E+02  -.64970E+00
   .78550E+02   .72506E+02  -.64956E+00
   .78560E+02   .72422E+02  -.64941E+00
   .78565E+02   .72376E+02  -.64933E+00
   .78570E+02   .72328E+02  -.64926E+00
   .78575E+02   .72276E+02  -.64918E+00
   .78580E+02   .72222E+02  -.64911E+00
   .78585E+02   .72163E+02  -.64904E+00
   .78590E+02   .72099E+02  -.64896E+00
   .78595E+02   .72030E+02  -.64889E+00
   .78600E+02   .71955E+02  -.64881E+00
   .78605E+02   .71872E+02  -.64874E+00
   .78610E+02   .71779E+02  -.64866E+00
   .78615E+02   .71674E+02  -.64859E+00
   .78618E+02   .71604E+02  -.64855E+00
   .78620E+02   .71554E+02  -.64852E+00
   .78623E+02   .71473E+02  -.64847E+00
   .78625E+02   .71414E+02  -.64844E+00
   .78627E+02   .71350E+02  -.64841E+00
   .78630E+02   .71245E+02  -.64837E+00
   .78632E+02   .71166E+02  -.64834E+00
   .78634E+02   .71080E+02  -.64831E+00
   .78637E+02   .70931E+02  -.64826E+00
   .78639E+02   .70814E+02  -.64823E+00
   .78641E+02   .70679E+02  -.64820E+00
   .78642E+02   .70602E+02  -.64819E+00
   .78643E+02   .70517E+02  -.64817E+00
   .78644E+02   .70423E+02  -.64816E+00
   .78645E+02   .70313E+02  -.64815E+00
   .78646E+02   .70167E+02  -.64813E+00
   .78647E+02   .69960E+02  -.64811E+00
   .78647E+02   .69959E+02  -.68485E+00
   .78647E+02   .69959E+02  -.72158E+00
   .78648E+02   .69956E+02  -.79505E+00
   .78648E+02   .69949E+02  -.94200E+00
   .78649E+02   .69927E+02  -.12359E+01
   .78650E+02   .69829E+02  -.64807E+00
   .78652E+02   .69359E+02  -.64804E+00
   .78653E+02   .68791E+02  -.64802E+00
   .78655E+02   .67854E+02  -.64800E+00
   .78656E+02   .65487E+02  -.64798E+00
   .78657E+02   .66704E+02  -.87723E+00
   .78658E+02   .68025E+02  -.12706E+02
   .78659E+02   .68983E+02  -.17024E+01
   .78659E+02   .70369E+02  -.22522E+01
   .78659E+02   .70961E+02  -.25847E+01
   .78660E+02   .71793E+02  -.29662E+01
   .78661E+02   .71166E+02  -.49104E+01
   .78662E+02   .71667E+02  -.34050E+01
   .78664E+02   .71426E+02  -.33728E+01
   .78665E+02   .71373E+02  -.33406E+01
   .78666E+02   .71371E+02  -.33193E+01
   .78667E+02   .71382E+02  -.32979E+01
   .78668E+02   .71399E+02  -.32821E+01
   .78669E+02   .71421E+02  -.32661E+01
   .78670E+02   .71444E+02  -.32505E+01
   .78671E+02   .71468E+02  -.32347E+01
   .78673E+02   .71503E+02  -.32179E+01
   .78674E+02   .71539E+02  -.32012E+01
   .78675E+02   .71561E+02  -.31919E+01
   .78676E+02   .71582E+02  -.31826E+01
   .78678E+02   .71624E+02  -.31677E+01
   .78680E+02   .71662E+02  -.31554E+01
   .78683E+02   .71715E+02  -.31428E+01
   .78685E+02   .71749E+02  -.31370E+01
   .78688E+02   .71796E+02  -.31320E+01
   .78690E+02   .71826E+02  -.31299E+01
   .78693E+02   .71869E+02  -.31307E+01
   .78695E+02   .71897E+02  -.31313E+01
   .78700E+02   .71965E+02  -.31375E+01
   .78704E+02   .72017E+02  -.31445E+01
   .78708E+02   .72068E+02  -.31518E+01
   .78715E+02   .72155E+02  -.31644E+01
   .78722E+02   .72239E+02  -.31739E+01
   .78730E+02   .72328E+02  -.31810E+01
   .78737E+02   .72401E+02  -.31833E+01
   .78745E+02   .72477E+02  -.31828E+01
   .78752E+02   .72538E+02  -.31807E+01
   .78760E+02   .72600E+02  -.31776E+01
   .78770E+02   .72671E+02  -.31745E+01
   .78780E+02   .72734E+02  -.31714E+01
   .78790E+02   .72792E+02  -.31714E+01
   .78800E+02   .72846E+02  -.31714E+01
   .78815E+02   .72922E+02  -.31738E+01
   .78830E+02   .72994E+02  -.31762E+01
   .78840E+02   .73040E+02  -.31766E+01
   .78850E+02   .73083E+02  -.31770E+01
   .78865E+02   .73145E+02  -.31752E+01
   .78880E+02   .73201E+02  -.31734E+01
   .78890E+02   .73236E+02  -.31719E+01
   .78900E+02   .73269E+02  -.31704E+01
   .78920E+02   .73331E+02  -.31694E+01
   .78950E+02   .73418E+02  -.31680E+01
   .78970E+02   .73470E+02  -.31677E+01
   .79000E+02   .73545E+02  -.31672E+01
   .79020E+02   .73592E+02  -.31657E+01
   .79040E+02   .73636E+02  -.31643E+01
   .79060E+02   .73678E+02  -.31628E+01
   .79080E+02   .73717E+02  -.31613E+01
   .79100E+02   .73755E+02  -.31604E+01
   .79120E+02   .73791E+02  -.31594E+01
   .79150E+02   .73843E+02  -.31579E+01
   .79190E+02   .73908E+02  -.31551E+01
   .79230E+02   .73968E+02  -.31523E+01
   .79260E+02   .74010E+02  -.31501E+01
   .79300E+02   .74063E+02  -.31473E+01
   .79350E+02   .74124E+02  -.31444E+01
   .79400E+02   .74182E+02  -.31416E+01
   .79450E+02   .74237E+02  -.31387E+01
   .79500E+02   .74288E+02  -.31359E+01
   .79550E+02   .74336E+02  -.31330E+01
   .79600E+02   .74382E+02  -.31301E+01
   .79650E+02   .74425E+02  -.31273E+01
   .79700E+02   .74467E+02  -.31244E+01
   .79740E+02   .74498E+02  -.31221E+01
   .79780E+02   .74529E+02  -.31198E+01
   .79850E+02   .74580E+02  -.31158E+01
   .79920E+02   .74629E+02  -.31118E+01
   .79960E+02   .74657E+02  -.31095E+01
   .80000E+02   .74682E+02  -.31072E+01
   .80100E+02   .74743E+02  -.31012E+01
   .80200E+02   .74801E+02  -.30951E+01
   .80300E+02   .74855E+02  -.30890E+01
   .80400E+02   .74905E+02  -.30829E+01
   .80500E+02   .74953E+02  -.30768E+01
   .80600E+02   .74999E+02  -.30708E+01
   .80700E+02   .75042E+02  -.30647E+01
   .80800E+02   .75083E+02  -.30586E+01
   .80900E+02   .75123E+02  -.30526E+01
   .81000E+02   .75160E+02  -.30465E+01
   .81100E+02   .75197E+02  -.30404E+01
   .81200E+02   .75231E+02  -.30343E+01
   .81350E+02   .75281E+02  -.30252E+01
   .81500E+02   .75328E+02  -.30161E+01
   .81700E+02   .75387E+02  -.30045E+01
   .81900E+02   .75442E+02  -.29930E+01
   .82100E+02   .75494E+02  -.29814E+01
   .82300E+02   .75543E+02  -.29698E+01
   .82500E+02   .75590E+02  -.29582E+01
   .82700E+02   .75633E+02  -.29467E+01
   .82850E+02   .75665E+02  -.29380E+01
   .83000E+02   .75695E+02  -.29293E+01
   .83150E+02   .75724E+02  -.29212E+01
   .83300E+02   .75753E+02  -.29131E+01
   .83500E+02   .75789E+02  -.29023E+01
   .83800E+02   .75841E+02  -.28861E+01
   .84000E+02   .75874E+02  -.28753E+01
   .84300E+02   .75921E+02  -.28596E+01
   .84500E+02   .75950E+02  -.28491E+01
   .84800E+02   .75993E+02  -.28334E+01
   .85000E+02   .76020E+02  -.28229E+01
   .85400E+02   .76072E+02  -.28036E+01
   .85800E+02   .76122E+02  -.27844E+01
   .86200E+02   .76169E+02  -.27651E+01
   .86500E+02   .76202E+02  -.27507E+01
   .86700E+02   .76225E+02  -.27409E+01
   .86900E+02   .76246E+02  -.27311E+01
   .87100E+02   .76266E+02  -.27213E+01
   .87300E+02   .76286E+02  -.27115E+01
   .87700E+02   .76325E+02  -.26919E+01
   .88000E+02   .76353E+02  -.26772E+01
   .88300E+02   .76380E+02  -.26625E+01
   .88500E+02   .76397E+02  -.26527E+01
   .88800E+02   .76422E+02  -.26381E+01
   .89000E+02   .76438E+02  -.26283E+01
   .89300E+02   .76462E+02  -.26138E+01
   .89500E+02   .76478E+02  -.26042E+01
   .89800E+02   .76500E+02  -.25897E+01
   .90000E+02   .76514E+02  -.25800E+01
   .90400E+02   .76542E+02  -.25615E+01
   .90800E+02   .76568E+02  -.25431E+01
   .91200E+02   .76594E+02  -.25246E+01
   .91500E+02   .76612E+02  -.25107E+01
   .91900E+02   .76636E+02  -.24930E+01
   .92300E+02   .76659E+02  -.24753E+01
   .92700E+02   .76681E+02  -.24577E+01
   .93000E+02   .76696E+02  -.24444E+01
   .93300E+02   .76712E+02  -.24317E+01
   .93500E+02   .76722E+02  -.24232E+01
   .94000E+02   .76746E+02  -.24020E+01
   .94500E+02   .76769E+02  -.23813E+01
   .94800E+02   .76783E+02  -.23689E+01
   .95000E+02   .76791E+02  -.23607E+01
   .95400E+02   .76808E+02  -.23451E+01
   .95800E+02   .76824E+02  -.23295E+01
   .96200E+02   .76840E+02  -.23139E+01
   .96500E+02   .76852E+02  -.23022E+01
   .96900E+02   .76867E+02  -.22872E+01
   .97300E+02   .76882E+02  -.22723E+01
   .97700E+02   .76896E+02  -.22573E+01
   .98000E+02   .76907E+02  -.22461E+01
   .98500E+02   .76923E+02  -.22280E+01
   .99000E+02   .76940E+02  -.22099E+01
   .99500E+02   .76955E+02  -.21923E+01
   .99800E+02   .76964E+02  -.21818E+01
   .10000E+03   .76970E+02  -.21747E+01
   .10040E+03   .76982E+02  -.21611E+01
   .10080E+03   .76993E+02  -.21475E+01
   .10120E+03   .77005E+02  -.21339E+01
   .10150E+03   .77013E+02  -.21237E+01
   .10190E+03   .77023E+02  -.21106E+01
   .10230E+03   .77034E+02  -.20975E+01
   .10270E+03   .77044E+02  -.20844E+01
   .10300E+03   .77051E+02  -.20746E+01
   .10350E+03   .77063E+02  -.20587E+01
   .10400E+03   .77075E+02  -.20429E+01
   .10450E+03   .77087E+02  -.20271E+01
   .10500E+03   .77098E+02  -.20113E+01
   .10540E+03   .77106E+02  -.19993E+01
   .10580E+03   .77114E+02  -.19873E+01
   .10620E+03   .77122E+02  -.19753E+01
   .10650E+03   .77128E+02  -.19663E+01
   .10690E+03   .77136E+02  -.19543E+01
   .10730E+03   .77143E+02  -.19423E+01
   .10800E+03   .77156E+02  -.19212E+01
   .10850E+03   .77165E+02  -.19070E+01
   .10900E+03   .77173E+02  -.18928E+01
   .10950E+03   .77182E+02  -.18786E+01
   .11000E+03   .77189E+02  -.18643E+01
   .11080E+03   .77202E+02  -.18428E+01
   .11150E+03   .77212E+02  -.18240E+01
   .11230E+03   .77223E+02  -.18024E+01
   .11300E+03   .77232E+02  -.17836E+01
   .11350E+03   .77239E+02  -.17708E+01
   .11400E+03   .77245E+02  -.17579E+01
   .11450E+03   .77251E+02  -.17451E+01
   .11500E+03   .77257E+02  -.17323E+01
   .11580E+03   .77266E+02  -.17124E+01
   .11650E+03   .77273E+02  -.16949E+01
   .11730E+03   .77281E+02  -.16757E+01
   .11800E+03   .77288E+02  -.16588E+01
   .11850E+03   .77293E+02  -.16471E+01
   .11900E+03   .77297E+02  -.16354E+01
   .11950E+03   .77301E+02  -.16240E+01
   .12000E+03   .77305E+02  -.16126E+01
   .12100E+03   .77313E+02  -.15905E+01
   .12200E+03   .77320E+02  -.15685E+01
   .12300E+03   .77327E+02  -.15475E+01
   .12400E+03   .77333E+02  -.15265E+01
   .12550E+03   .77342E+02  -.14964E+01
   .12700E+03   .77351E+02  -.14672E+01
   .12850E+03   .77358E+02  -.14389E+01
   .13000E+03   .77365E+02  -.14115E+01
   .13150E+03   .77371E+02  -.13848E+01
   .13300E+03   .77377E+02  -.13589E+01
   .13450E+03   .77382E+02  -.13337E+01
   .13600E+03   .77387E+02  -.13093E+01
   .13750E+03   .77391E+02  -.12857E+01
   .13900E+03   .77395E+02  -.12626E+01
   .14050E+03   .77398E+02  -.12402E+01
   .14200E+03   .77401E+02  -.12183E+01
   .14400E+03   .77405E+02  -.11900E+01
   .14540E+03   .77407E+02  -.11708E+01
   .14600E+03   .77408E+02  -.11627E+01
   .14670E+03   .77409E+02  -.11534E+01
   .14800E+03   .77410E+02  -.11364E+01
   .14900E+03   .77411E+02  -.11236E+01
   .14950E+03   .77411E+02  -.11173E+01
   .15000E+03   .77412E+02  -.11111E+01
   .15200E+03   .77413E+02  -.10869E+01
   .15400E+03   .77414E+02  -.10636E+01
   .15600E+03   .77415E+02  -.10410E+01
   .15800E+03   .77415E+02  -.10193E+01
   .16000E+03   .77416E+02  -.99821E+00
   .16200E+03   .77416E+02  -.97784E+00
   .16350E+03   .77416E+02  -.96299E+00
   .16500E+03   .77416E+02  -.94850E+00
   .16700E+03   .77415E+02  -.92972E+00
   .16900E+03   .77415E+02  -.91153E+00
   .17100E+03   .77414E+02  -.89391E+00
   .17300E+03   .77413E+02  -.87682E+00
   .17500E+03   .77412E+02  -.86015E+00
   .17700E+03   .77411E+02  -.84395E+00
   .18000E+03   .77409E+02  -.82054E+00
   .18300E+03   .77407E+02  -.79817E+00
   .18500E+03   .77406E+02  -.78378E+00
   .18800E+03   .77403E+02  -.76295E+00
   .19000E+03   .77402E+02  -.74957E+00
   .19300E+03   .77399E+02  -.73019E+00
   .19500E+03   .77397E+02  -.71771E+00
   .19800E+03   .77394E+02  -.69962E+00
   .20000E+03   .77393E+02  -.68796E+00
