    E(keV)         f1           f2     
   .10000E+01   .53833E+02  -.26963E+02
   .10100E+01   .54059E+02  -.26741E+02
   .10200E+01   .54275E+02  -.26519E+02
   .10300E+01   .54486E+02  -.26302E+02
   .10410E+01   .54709E+02  -.26063E+02
   .10550E+01   .54977E+02  -.25767E+02
   .10700E+01   .55253E+02  -.25450E+02
   .10850E+01   .55515E+02  -.25138E+02
   .11000E+01   .55759E+02  -.24825E+02
   .11150E+01   .55994E+02  -.24523E+02
   .11300E+01   .56213E+02  -.24222E+02
   .11500E+01   .56487E+02  -.23832E+02
   .11700E+01   .56742E+02  -.23449E+02
   .12000E+01   .57091E+02  -.22895E+02
   .12300E+01   .57404E+02  -.22361E+02
   .12540E+01   .57630E+02  -.21944E+02
   .12900E+01   .57931E+02  -.21347E+02
   .13200E+01   .58156E+02  -.20866E+02
   .13500E+01   .58352E+02  -.20402E+02
   .13800E+01   .58524E+02  -.19950E+02
   .14100E+01   .58673E+02  -.19516E+02
   .14400E+01   .58799E+02  -.19097E+02
   .14700E+01   .58908E+02  -.18691E+02
   .15000E+01   .58998E+02  -.18302E+02
   .15300E+01   .59070E+02  -.17916E+02
   .15600E+01   .59121E+02  -.17546E+02
   .15900E+01   .59156E+02  -.17187E+02
   .16300E+01   .59174E+02  -.16728E+02
   .16600E+01   .59171E+02  -.16396E+02
   .16900E+01   .59150E+02  -.16074E+02
   .17200E+01   .59113E+02  -.15763E+02
   .17519E+01   .59059E+02  -.15442E+02
   .17900E+01   .58969E+02  -.15073E+02
   .18200E+01   .58881E+02  -.14791E+02
   .18500E+01   .58776E+02  -.14518E+02
   .18800E+01   .58655E+02  -.14255E+02
   .19100E+01   .58518E+02  -.13999E+02
   .19400E+01   .58364E+02  -.13751E+02
   .19700E+01   .58193E+02  -.13509E+02
   .19850E+01   .58100E+02  -.13392E+02
   .20000E+01   .58003E+02  -.13275E+02
   .20300E+01   .57792E+02  -.13043E+02
   .20700E+01   .57474E+02  -.12746E+02
   .21100E+01   .57112E+02  -.12458E+02
   .21500E+01   .56700E+02  -.12182E+02
   .21800E+01   .56354E+02  -.11980E+02
   .22000E+01   .56102E+02  -.11850E+02
   .22200E+01   .55833E+02  -.11720E+02
   .22400E+01   .55545E+02  -.11595E+02
   .22600E+01   .55236E+02  -.11471E+02
   .22800E+01   .54904E+02  -.11350E+02
   .23000E+01   .54546E+02  -.11230E+02
   .23150E+01   .54258E+02  -.11142E+02
   .23300E+01   .53952E+02  -.11054E+02
   .23500E+01   .53512E+02  -.10939E+02
   .23700E+01   .53030E+02  -.10825E+02
   .23850E+01   .52637E+02  -.10743E+02
   .24000E+01   .52213E+02  -.10660E+02
   .24100E+01   .51911E+02  -.10607E+02
   .24200E+01   .51591E+02  -.10553E+02
   .24300E+01   .51253E+02  -.10500E+02
   .24400E+01   .50893E+02  -.10446E+02
   .24500E+01   .50509E+02  -.10394E+02
   .24600E+01   .50097E+02  -.10342E+02
   .24700E+01   .49655E+02  -.10290E+02
   .24800E+01   .49176E+02  -.10238E+02
   .24880E+01   .48763E+02  -.10198E+02
   .24950E+01   .48376E+02  -.10162E+02
   .25030E+01   .47901E+02  -.10122E+02
   .25100E+01   .47453E+02  -.10087E+02
   .25180E+01   .46895E+02  -.10047E+02
   .25250E+01   .46361E+02  -.10013E+02
   .25330E+01   .45687E+02  -.99737E+01
   .25370E+01   .45319E+02  -.99540E+01
   .25400E+01   .45027E+02  -.99393E+01
   .25450E+01   .44507E+02  -.99155E+01
   .25500E+01   .43936E+02  -.98916E+01
   .25550E+01   .43303E+02  -.98678E+01
   .25580E+01   .42888E+02  -.98535E+01
   .25600E+01   .42593E+02  -.98440E+01
   .25630E+01   .42119E+02  -.98297E+01
   .25650E+01   .41778E+02  -.98202E+01
   .25680E+01   .41224E+02  -.98059E+01
   .25700E+01   .40818E+02  -.97963E+01
   .25730E+01   .40132E+02  -.97820E+01
   .25750E+01   .39595E+02  -.97725E+01
   .25770E+01   .38903E+02  -.97630E+01
   .25792E+01   .24441E+02  -.97526E+01
   .25792E+01   .38593E+02  -.56567E+02
   .25793E+01   .52745E+02  -.97521E+01
   .25804E+01   .38871E+02  -.97469E+01
   .25814E+01   .38164E+02  -.97419E+01
   .25825E+01   .37584E+02  -.97370E+01
   .25836E+01   .34690E+02  -.97318E+01
   .25837E+01   .37103E+02  -.17812E+02
   .25837E+01   .39514E+02  -.97313E+01
   .25841E+01   .37096E+02  -.97294E+01
   .25845E+01   .35923E+02  -.97275E+01
   .25846E+01   .36752E+02  -.12640E+02
   .25846E+01   .37577E+02  -.97270E+01
   .25847E+01   .37373E+02  -.97270E+01
   .25847E+01   .37195E+02  -.97269E+01
   .25847E+01   .36965E+02  -.98003E+01
   .25848E+01   .36827E+02  -.97264E+01
   .25849E+01   .36613E+02  -.97261E+01
   .25849E+01   .36240E+02  -.97257E+01
   .25850E+01   .36600E+02  -.11177E+02
   .25850E+01   .36952E+02  -.97253E+01
   .25851E+01   .36683E+02  -.97250E+01
   .25851E+01   .36451E+02  -.97249E+01
   .25852E+01   .36578E+02  -.10543E+02
   .25852E+01   .36702E+02  -.97244E+01
   .25852E+01   .36604E+02  -.97243E+01
   .25853E+01   .36448E+02  -.97242E+01
   .25853E+01   .36562E+02  -.10513E+02
   .25854E+01   .36676E+02  -.97237E+01
   .25854E+01   .36606E+02  -.97236E+01
   .25854E+01   .36479E+02  -.97235E+01
   .25854E+01   .36556E+02  -.10372E+02
   .25855E+01   .36670E+02  -.97231E+01
   .25856E+01   .36345E+02  -.97223E+01
   .25857E+01   .36254E+02  -.97220E+01
   .25858E+01   .36151E+02  -.97216E+01
   .25859E+01   .36068E+02  -.97214E+01
   .25859E+01   .35988E+02  -.97212E+01
   .25859E+01   .35867E+02  -.97486E+01
   .25860E+01   .35780E+02  -.98893E+01
   .25861E+01   .35809E+02  -.10032E+02
   .25861E+01   .35861E+02  -.10034E+02
   .25861E+01   .35862E+02  -.10036E+02
   .25862E+01   .35865E+02  -.10038E+02
   .25863E+01   .35839E+02  -.10041E+02
   .25864E+01   .35803E+02  -.10045E+02
   .25866E+01   .35716E+02  -.10053E+02
   .25870E+01   .35511E+02  -.10071E+02
   .25875E+01   .35228E+02  -.10103E+02
   .25880E+01   .34925E+02  -.10147E+02
   .25885E+01   .34591E+02  -.10203E+02
   .25888E+01   .34392E+02  -.10243E+02
   .25890E+01   .34260E+02  -.10273E+02
   .25893E+01   .34039E+02  -.10325E+02
   .25895E+01   .33891E+02  -.10364E+02
   .25897E+01   .33744E+02  -.10405E+02
   .25900E+01   .33524E+02  -.10474E+02
   .25902E+01   .33362E+02  -.10526E+02
   .25905E+01   .33120E+02  -.10610E+02
   .25907E+01   .32958E+02  -.10673E+02
   .25910E+01   .32716E+02  -.10778E+02
   .25913E+01   .32457E+02  -.10891E+02
   .25915E+01   .32284E+02  -.10975E+02
   .25918E+01   .32026E+02  -.11112E+02
   .25920E+01   .31853E+02  -.11212E+02
   .25922E+01   .31674E+02  -.11319E+02
   .25925E+01   .31407E+02  -.11494E+02
   .25928E+01   .31140E+02  -.11684E+02
   .25930E+01   .30961E+02  -.11821E+02
   .25933E+01   .30699E+02  -.12040E+02
   .25935E+01   .30525E+02  -.12198E+02
   .25937E+01   .30350E+02  -.12366E+02
   .25940E+01   .30088E+02  -.12633E+02
   .25942E+01   .29925E+02  -.12818E+02
   .25945E+01   .29680E+02  -.13119E+02
   .25947E+01   .29528E+02  -.13328E+02
   .25950E+01   .29300E+02  -.13658E+02
   .25953E+01   .29098E+02  -.14008E+02
   .25955E+01   .28964E+02  -.14250E+02
   .25957E+01   .28850E+02  -.14499E+02
   .25960E+01   .28679E+02  -.14887E+02
   .25962E+01   .28588E+02  -.15153E+02
   .25965E+01   .28452E+02  -.15562E+02
   .25970E+01   .28293E+02  -.16263E+02
   .25974E+01   .28218E+02  -.16836E+02
   .25978E+01   .28190E+02  -.17413E+02
   .25982E+01   .28207E+02  -.17986E+02
   .25985E+01   .28251E+02  -.18412E+02
   .25989E+01   .28348E+02  -.18963E+02
   .25992E+01   .28449E+02  -.19366E+02
   .25996E+01   .28611E+02  -.19882E+02
   .26000E+01   .28808E+02  -.20372E+02
   .26002E+01   .28919E+02  -.20606E+02
   .26005E+01   .29086E+02  -.20944E+02
   .26007E+01   .29214E+02  -.21158E+02
   .26010E+01   .29407E+02  -.21469E+02
   .26012E+01   .29546E+02  -.21659E+02
   .26015E+01   .29756E+02  -.21938E+02
   .26018E+01   .29965E+02  -.22201E+02
   .26020E+01   .30105E+02  -.22362E+02
   .26024E+01   .30397E+02  -.22666E+02
   .26028E+01   .30689E+02  -.22944E+02
   .26031E+01   .30908E+02  -.23133E+02
   .26035E+01   .31200E+02  -.23369E+02
   .26038E+01   .31410E+02  -.23527E+02
   .26042E+01   .31690E+02  -.23722E+02
   .26046E+01   .31966E+02  -.23898E+02
   .26050E+01   .32242E+02  -.24058E+02
   .26054E+01   .32502E+02  -.24202E+02
   .26057E+01   .32696E+02  -.24298E+02
   .26065E+01   .33177E+02  -.24533E+02
   .26072E+01   .33573E+02  -.24706E+02
   .26080E+01   .33997E+02  -.24879E+02
   .26085E+01   .34242E+02  -.24976E+02
   .26090E+01   .34488E+02  -.25062E+02
   .26100E+01   .34945E+02  -.25221E+02
   .26115E+01   .35568E+02  -.25421E+02
   .26130E+01   .36142E+02  -.25588E+02
   .26145E+01   .36675E+02  -.25737E+02
   .26160E+01   .37173E+02  -.25865E+02
   .26175E+01   .37645E+02  -.25963E+02
   .26190E+01   .38097E+02  -.26042E+02
   .26200E+01   .38380E+02  -.26087E+02
   .26210E+01   .38663E+02  -.26114E+02
   .26213E+01   .38743E+02  -.26121E+02
   .26215E+01   .38796E+02  -.26127E+02
   .26220E+01   .38930E+02  -.26140E+02
   .26225E+01   .39062E+02  -.26145E+02
   .26230E+01   .39188E+02  -.26150E+02
   .26250E+01   .39675E+02  -.26153E+02
   .26270E+01   .40118E+02  -.26124E+02
   .26285E+01   .40421E+02  -.26086E+02
   .26300E+01   .40703E+02  -.26038E+02
   .26320E+01   .41041E+02  -.25959E+02
   .26340E+01   .41343E+02  -.25879E+02
   .26360E+01   .41602E+02  -.25790E+02
   .26374E+01   .41763E+02  -.25729E+02
   .26400E+01   .42029E+02  -.25620E+02
   .26430E+01   .42281E+02  -.25494E+02
   .26460E+01   .42481E+02  -.25386E+02
   .26490E+01   .42638E+02  -.25292E+02
   .26520E+01   .42767E+02  -.25212E+02
   .26550E+01   .42865E+02  -.25145E+02
   .26580E+01   .42940E+02  -.25095E+02
   .26600E+01   .42978E+02  -.25061E+02
   .26640E+01   .43027E+02  -.25007E+02
   .26680E+01   .43037E+02  -.24952E+02
   .26720E+01   .43003E+02  -.24897E+02
   .26750E+01   .42932E+02  -.24856E+02
   .26790E+01   .42778E+02  -.24797E+02
   .26820E+01   .42597E+02  -.24753E+02
   .26840E+01   .42428E+02  -.24723E+02
   .26860E+01   .42178E+02  -.24693E+02
   .26880E+01   .41594E+02  -.24663E+02
   .26893E+01   .27808E+02  -.24645E+02
   .26893E+01   .42089E+02  -.73827E+02
   .26894E+01   .56370E+02  -.24643E+02
   .26904E+01   .42676E+02  -.24625E+02
   .26915E+01   .41009E+02  -.24607E+02
   .26916E+01   .42199E+02  -.28765E+02
   .26916E+01   .43390E+02  -.24605E+02
   .26927E+01   .41962E+02  -.24588E+02
   .26937E+01   .41675E+02  -.24571E+02
   .26948E+01   .41359E+02  -.24554E+02
   .26958E+01   .39508E+02  -.24537E+02
   .26959E+01   .41080E+02  -.30083E+02
   .26959E+01   .42634E+02  -.24535E+02
   .26960E+01   .42187E+02  -.24535E+02
   .26960E+01   .41797E+02  -.24535E+02
   .26960E+01   .41711E+02  -.25251E+02
   .26961E+01   .41755E+02  -.24533E+02
   .26965E+01   .41116E+02  -.24527E+02
   .26968E+01   .40296E+02  -.24520E+02
   .26969E+01   .40993E+02  -.26768E+02
   .26969E+01   .41611E+02  -.24519E+02
   .26971E+01   .40997E+02  -.24516E+02
   .26972E+01   .40580E+02  -.24514E+02
   .26973E+01   .40883E+02  -.25619E+02
   .26974E+01   .41146E+02  -.24512E+02
   .26974E+01   .40920E+02  -.24511E+02
   .26974E+01   .40723E+02  -.24510E+02
   .26975E+01   .40820E+02  -.25129E+02
   .26976E+01   .40933E+02  -.24509E+02
   .26976E+01   .40833E+02  -.24508E+02
   .26976E+01   .40753E+02  -.24508E+02
   .26976E+01   .40810E+02  -.25036E+02
   .26977E+01   .40866E+02  -.24506E+02
   .26977E+01   .40817E+02  -.24506E+02
   .26977E+01   .40769E+02  -.24506E+02
   .26978E+01   .40789E+02  -.24890E+02
   .26978E+01   .40808E+02  -.24504E+02
   .26979E+01   .40749E+02  -.24503E+02
   .26979E+01   .40715E+02  -.24545E+02
   .26979E+01   .40691E+02  -.24609E+02
   .26980E+01   .40667E+02  -.24694E+02
   .26980E+01   .40652E+02  -.24737E+02
   .26980E+01   .40640E+02  -.24738E+02
   .26981E+01   .40616E+02  -.24739E+02
   .26983E+01   .40577E+02  -.24741E+02
   .26984E+01   .40548E+02  -.24744E+02
   .26987E+01   .40459E+02  -.24748E+02
   .26989E+01   .40404E+02  -.24755E+02
   .26995E+01   .40212E+02  -.24774E+02
   .27000E+01   .40039E+02  -.24801E+02
   .27007E+01   .39774E+02  -.24851E+02
   .27015E+01   .39441E+02  -.24937E+02
   .27023E+01   .39078E+02  -.25060E+02
   .27026E+01   .38929E+02  -.25115E+02
   .27030E+01   .38731E+02  -.25205E+02
   .27034E+01   .38523E+02  -.25310E+02
   .27038E+01   .38315E+02  -.25431E+02
   .27041E+01   .38152E+02  -.25535E+02
   .27045E+01   .37936E+02  -.25690E+02
   .27049E+01   .37719E+02  -.25865E+02
   .27053E+01   .37502E+02  -.26065E+02
   .27056E+01   .37345E+02  -.26228E+02
   .27060E+01   .37136E+02  -.26471E+02
   .27064E+01   .36946E+02  -.26736E+02
   .27068E+01   .36756E+02  -.27025E+02
   .27071E+01   .36637E+02  -.27257E+02
   .27075E+01   .36479E+02  -.27586E+02
   .27079E+01   .36350E+02  -.27939E+02
   .27083E+01   .36256E+02  -.28305E+02
   .27086E+01   .36199E+02  -.28592E+02
   .27090E+01   .36153E+02  -.28974E+02
   .27094E+01   .36139E+02  -.29367E+02
   .27098E+01   .36158E+02  -.29760E+02
   .27102E+01   .36210E+02  -.30148E+02
   .27105E+01   .36270E+02  -.30438E+02
   .27109E+01   .36377E+02  -.30804E+02
   .27113E+01   .36510E+02  -.31169E+02
   .27117E+01   .36676E+02  -.31511E+02
   .27120E+01   .36801E+02  -.31752E+02
   .27124E+01   .37000E+02  -.32056E+02
   .27128E+01   .37200E+02  -.32338E+02
   .27132E+01   .37420E+02  -.32596E+02
   .27135E+01   .37585E+02  -.32780E+02
   .27139E+01   .37818E+02  -.32998E+02
   .27143E+01   .38050E+02  -.33196E+02
   .27150E+01   .38457E+02  -.33503E+02
   .27158E+01   .38904E+02  -.33784E+02
   .27165E+01   .39296E+02  -.33983E+02
   .27173E+01   .39704E+02  -.34168E+02
   .27180E+01   .40061E+02  -.34300E+02
   .27185E+01   .40294E+02  -.34381E+02
   .27190E+01   .40527E+02  -.34452E+02
   .27200E+01   .40955E+02  -.34571E+02
   .27210E+01   .41349E+02  -.34660E+02
   .27220E+01   .41723E+02  -.34749E+02
   .27230E+01   .42072E+02  -.34815E+02
   .27240E+01   .42403E+02  -.34881E+02
   .27260E+01   .43026E+02  -.34979E+02
   .27280E+01   .43597E+02  -.35060E+02
   .27300E+01   .44144E+02  -.35112E+02
   .27320E+01   .44654E+02  -.35132E+02
   .27335E+01   .45025E+02  -.35133E+02
   .27350E+01   .45377E+02  -.35133E+02
   .27370E+01   .45819E+02  -.35094E+02
   .27390E+01   .46236E+02  -.35054E+02
   .27410E+01   .46624E+02  -.34989E+02
   .27430E+01   .46983E+02  -.34924E+02
   .27450E+01   .47318E+02  -.34845E+02
   .27470E+01   .47626E+02  -.34766E+02
   .27500E+01   .48050E+02  -.34646E+02
   .27540E+01   .48554E+02  -.34501E+02
   .27580E+01   .48997E+02  -.34356E+02
   .27620E+01   .49400E+02  -.34243E+02
   .27650E+01   .49684E+02  -.34158E+02
   .27690E+01   .50045E+02  -.34074E+02
   .27730E+01   .50392E+02  -.33990E+02
   .27800E+01   .50972E+02  -.33856E+02
   .27880E+01   .51593E+02  -.33704E+02
   .27950E+01   .52103E+02  -.33570E+02
   .28030E+01   .52638E+02  -.33411E+02
   .28100E+01   .53068E+02  -.33271E+02
   .28170E+01   .53472E+02  -.33150E+02
   .28250E+01   .53914E+02  -.33012E+02
   .28320E+01   .54282E+02  -.32891E+02
   .28400E+01   .54681E+02  -.32753E+02
   .28470E+01   .55013E+02  -.32638E+02
   .28550E+01   .55372E+02  -.32507E+02
   .28700E+01   .56009E+02  -.32261E+02
   .28780E+01   .56330E+02  -.32131E+02
   .28850E+01   .56603E+02  -.32018E+02
   .28930E+01   .56897E+02  -.31888E+02
   .29000E+01   .57143E+02  -.31774E+02
   .29140E+01   .57605E+02  -.31547E+02
   .29280E+01   .58031E+02  -.31320E+02
   .29340E+01   .58204E+02  -.31226E+02
   .29400E+01   .58372E+02  -.31132E+02
   .29500E+01   .58640E+02  -.30977E+02
   .29600E+01   .58893E+02  -.30821E+02
   .29700E+01   .59132E+02  -.30670E+02
   .29800E+01   .59358E+02  -.30519E+02
   .29900E+01   .59571E+02  -.30368E+02
   .30000E+01   .59773E+02  -.30217E+02
   .30100E+01   .59961E+02  -.30065E+02
   .30200E+01   .60132E+02  -.29914E+02
   .30300E+01   .60289E+02  -.29763E+02
   .30400E+01   .60430E+02  -.29612E+02
   .30500E+01   .60555E+02  -.29465E+02
   .30600E+01   .60662E+02  -.29319E+02
   .30700E+01   .60751E+02  -.29173E+02
   .30800E+01   .60819E+02  -.29026E+02
   .30900E+01   .60863E+02  -.28883E+02
   .31000E+01   .60876E+02  -.28740E+02
   .31050E+01   .60870E+02  -.28669E+02
   .31100E+01   .60852E+02  -.28597E+02
   .31150E+01   .60823E+02  -.28526E+02
   .31200E+01   .60779E+02  -.28454E+02
   .31250E+01   .60718E+02  -.28385E+02
   .31300E+01   .60635E+02  -.28316E+02
   .31350E+01   .60525E+02  -.28247E+02
   .31380E+01   .60442E+02  -.28205E+02
   .31400E+01   .60378E+02  -.28177E+02
   .31430E+01   .60267E+02  -.28136E+02
   .31450E+01   .60180E+02  -.28108E+02
   .31470E+01   .60081E+02  -.28080E+02
   .31490E+01   .59966E+02  -.28053E+02
   .31520E+01   .59757E+02  -.28011E+02
   .31540E+01   .59584E+02  -.27984E+02
   .31560E+01   .59370E+02  -.27956E+02
   .31581E+01   .58980E+02  -.27926E+02
   .31582E+01   .59071E+02  -.28265E+02
   .31583E+01   .59162E+02  -.27925E+02
   .31593E+01   .58876E+02  -.27910E+02
   .31604E+01   .58569E+02  -.27896E+02
   .31604E+01   .58629E+02  -.28149E+02
   .31605E+01   .58689E+02  -.27894E+02
   .31613E+01   .58395E+02  -.27883E+02
   .31621E+01   .58071E+02  -.27872E+02
   .31630E+01   .57510E+02  -.27860E+02
   .31638E+01   .51902E+02  -.27850E+02
   .31638E+01   .57504E+02  -.46849E+02
   .31639E+01   .63104E+02  -.27848E+02
   .31642E+01   .58284E+02  -.27844E+02
   .31646E+01   .57317E+02  -.27839E+02
   .31649E+01   .56257E+02  -.27834E+02
   .31652E+01   .51336E+02  -.27830E+02
   .31653E+01   .56377E+02  -.45499E+02
   .31653E+01   .61172E+02  -.27829E+02
   .31653E+01   .59400E+02  -.27828E+02
   .31654E+01   .57939E+02  -.27828E+02
   .31654E+01   .58602E+02  -.33850E+02
   .31655E+01   .59738E+02  -.27826E+02
   .31657E+01   .57044E+02  -.27823E+02
   .31659E+01   .53331E+02  -.27821E+02
   .31660E+01   .56931E+02  -.40641E+02
   .31660E+01   .60418E+02  -.27819E+02
   .31661E+01   .57595E+02  -.27818E+02
   .31662E+01   .55299E+02  -.27817E+02
   .31663E+01   .56985E+02  -.35018E+02
   .31663E+01   .58465E+02  -.27815E+02
   .31664E+01   .57010E+02  -.27814E+02
   .31664E+01   .55630E+02  -.27814E+02
   .31665E+01   .57026E+02  -.34989E+02
   .31665E+01   .58310E+02  -.27812E+02
   .31665E+01   .57421E+02  -.27812E+02
   .31666E+01   .56585E+02  -.27812E+02
   .31666E+01   .56871E+02  -.30537E+02
   .31666E+01   .57215E+02  -.33262E+02
   .31667E+01   .57473E+02  -.31081E+02
   .31667E+01   .57857E+02  -.27810E+02
   .31667E+01   .58102E+02  -.27810E+02
   .31667E+01   .58222E+02  -.27810E+02
   .31667E+01   .57307E+02  -.29614E+02
   .31668E+01   .56653E+02  -.28573E+02
   .31668E+01   .56125E+02  -.29196E+02
   .31669E+01   .56142E+02  -.29917E+02
   .31669E+01   .56266E+02  -.30291E+02
   .31669E+01   .56532E+02  -.30310E+02
   .31670E+01   .56691E+02  -.30324E+02
   .31670E+01   .56766E+02  -.30343E+02
   .31671E+01   .56819E+02  -.30362E+02
   .31671E+01   .56858E+02  -.30381E+02
   .31671E+01   .56882E+02  -.30395E+02
   .31672E+01   .56909E+02  -.30414E+02
   .31672E+01   .56954E+02  -.30452E+02
   .31673E+01   .56985E+02  -.30486E+02
   .31674E+01   .57019E+02  -.30524E+02
   .31676E+01   .57072E+02  -.30589E+02
   .31677E+01   .57118E+02  -.30654E+02
   .31679E+01   .57162E+02  -.30716E+02
   .31680E+01   .57208E+02  -.30779E+02
   .31683E+01   .57293E+02  -.30893E+02
   .31685E+01   .57354E+02  -.30969E+02
   .31690E+01   .57500E+02  -.31139E+02
   .31695E+01   .57649E+02  -.31283E+02
   .31700E+01   .57804E+02  -.31411E+02
   .31708E+01   .58045E+02  -.31582E+02
   .31715E+01   .58252E+02  -.31699E+02
   .31723E+01   .58479E+02  -.31803E+02
   .31730E+01   .58669E+02  -.31871E+02
   .31738E+01   .58872E+02  -.31928E+02
   .31745E+01   .59038E+02  -.31965E+02
   .31753E+01   .59217E+02  -.31986E+02
   .31760E+01   .59358E+02  -.32004E+02
   .31770E+01   .59550E+02  -.32011E+02
   .31780E+01   .59723E+02  -.32018E+02
   .31790E+01   .59881E+02  -.32008E+02
   .31800E+01   .60027E+02  -.31999E+02
   .31815E+01   .60223E+02  -.31974E+02
   .31830E+01   .60396E+02  -.31948E+02
   .31840E+01   .60509E+02  -.31930E+02
   .31850E+01   .60600E+02  -.31912E+02
   .31880E+01   .60863E+02  -.31858E+02
   .31900E+01   .61014E+02  -.31822E+02
   .31930E+01   .61219E+02  -.31784E+02
   .31950E+01   .61347E+02  -.31759E+02
   .31970E+01   .61464E+02  -.31739E+02
   .32000E+01   .61633E+02  -.31708E+02
   .32040E+01   .61850E+02  -.31674E+02
   .32070E+01   .62006E+02  -.31648E+02
   .32110E+01   .62203E+02  -.31611E+02
   .32150E+01   .62391E+02  -.31573E+02
   .32230E+01   .62758E+02  -.31479E+02
   .32300E+01   .63044E+02  -.31396E+02
   .32380E+01   .63347E+02  -.31284E+02
   .32450E+01   .63588E+02  -.31186E+02
   .32530E+01   .63839E+02  -.31077E+02
   .32600E+01   .64048E+02  -.30981E+02
   .32700E+01   .64331E+02  -.30849E+02
   .32800E+01   .64598E+02  -.30716E+02
   .32900E+01   .64851E+02  -.30583E+02
   .33000E+01   .65089E+02  -.30451E+02
   .33080E+01   .65271E+02  -.30347E+02
   .33150E+01   .65424E+02  -.30257E+02
   .33300E+01   .65736E+02  -.30062E+02
   .33450E+01   .66028E+02  -.29868E+02
   .33600E+01   .66303E+02  -.29674E+02
   .33750E+01   .66563E+02  -.29487E+02
   .33900E+01   .66810E+02  -.29301E+02
   .34100E+01   .67122E+02  -.29053E+02
   .34271E+01   .67369E+02  -.28841E+02
   .34400E+01   .67546E+02  -.28686E+02
   .34600E+01   .67803E+02  -.28447E+02
   .34750E+01   .67984E+02  -.28267E+02
   .34900E+01   .68154E+02  -.28087E+02
   .35050E+01   .68314E+02  -.27915E+02
   .35200E+01   .68465E+02  -.27743E+02
   .35400E+01   .68649E+02  -.27514E+02
   .35600E+01   .68815E+02  -.27285E+02
   .35750E+01   .68924E+02  -.27120E+02
   .35900E+01   .69020E+02  -.26954E+02
   .36050E+01   .69099E+02  -.26789E+02
   .36200E+01   .69158E+02  -.26623E+02
   .36280E+01   .69179E+02  -.26539E+02
   .36350E+01   .69190E+02  -.26465E+02
   .36430E+01   .69192E+02  -.26380E+02
   .36500E+01   .69183E+02  -.26306E+02
   .36550E+01   .69167E+02  -.26254E+02
   .36600E+01   .69143E+02  -.26201E+02
   .36650E+01   .69106E+02  -.26148E+02
   .36700E+01   .69052E+02  -.26095E+02
   .36720E+01   .69024E+02  -.26074E+02
   .36740E+01   .68992E+02  -.26053E+02
   .36770E+01   .68931E+02  -.26021E+02
   .36790E+01   .68881E+02  -.26000E+02
   .36810E+01   .68820E+02  -.25979E+02
   .36830E+01   .68743E+02  -.25958E+02
   .36840E+01   .68696E+02  -.25947E+02
   .36850E+01   .68642E+02  -.25937E+02
   .36862E+01   .68563E+02  -.25924E+02
   .36874E+01   .68405E+02  -.25912E+02
   .36875E+01   .68463E+02  -.26129E+02
   .36875E+01   .68521E+02  -.25910E+02
   .36883E+01   .68379E+02  -.25902E+02
   .36892E+01   .68253E+02  -.25893E+02
   .36896E+01   .68163E+02  -.25889E+02
   .36900E+01   .68051E+02  -.25885E+02
   .36904E+01   .67849E+02  -.25881E+02
   .36908E+01   .66581E+02  -.25877E+02
   .36909E+01   .67984E+02  -.30659E+02
   .36909E+01   .69385E+02  -.25875E+02
   .36912E+01   .68184E+02  -.25872E+02
   .36916E+01   .67837E+02  -.25868E+02
   .36917E+01   .67693E+02  -.25867E+02
   .36919E+01   .67427E+02  -.25865E+02
   .36920E+01   .67077E+02  -.25864E+02
   .36922E+01   .65845E+02  -.25862E+02
   .36923E+01   .67423E+02  -.31535E+02
   .36923E+01   .68933E+02  -.25861E+02
   .36923E+01   .68665E+02  -.25860E+02
   .36924E+01   .68174E+02  -.25860E+02
   .36925E+01   .68125E+02  -.27376E+02
   .36925E+01   .68283E+02  -.25859E+02
   .36926E+01   .67766E+02  -.25858E+02
   .36927E+01   .67548E+02  -.25857E+02
   .36927E+01   .67370E+02  -.25857E+02
   .36927E+01   .67129E+02  -.25856E+02
   .36928E+01   .66858E+02  -.25856E+02
   .36928E+01   .66368E+02  -.25855E+02
   .36929E+01   .65756E+02  -.26023E+02
   .36929E+01   .66002E+02  -.26132E+02
   .36929E+01   .66265E+02  -.26243E+02
   .36930E+01   .66912E+02  -.30405E+02
   .36930E+01   .68183E+02  -.26755E+02
   .36931E+01   .67796E+02  -.26761E+02
   .36931E+01   .67563E+02  -.26768E+02
   .36931E+01   .67392E+02  -.26773E+02
   .36932E+01   .67077E+02  -.26780E+02
   .36933E+01   .67627E+02  -.29030E+02
   .36933E+01   .68117E+02  -.26805E+02
   .36934E+01   .67822E+02  -.26810E+02
   .36934E+01   .67485E+02  -.26815E+02
   .36935E+01   .67970E+02  -.29060E+02
   .36935E+01   .68409E+02  -.26840E+02
   .36936E+01   .68174E+02  -.26843E+02
   .36936E+01   .68050E+02  -.26845E+02
   .36937E+01   .68338E+02  -.28618E+02
   .36937E+01   .68439E+02  -.26862E+02
   .36937E+01   .68650E+02  -.26866E+02
   .36937E+01   .68800E+02  -.26870E+02
   .36937E+01   .68658E+02  -.27117E+02
   .36938E+01   .68523E+02  -.26886E+02
   .36944E+01   .68185E+02  -.26962E+02
   .36949E+01   .68183E+02  -.27027E+02
   .36954E+01   .68216E+02  -.27077E+02
   .36960E+01   .68271E+02  -.27136E+02
   .36970E+01   .68372E+02  -.27203E+02
   .36980E+01   .68476E+02  -.27247E+02
   .36990E+01   .68575E+02  -.27275E+02
   .37000E+01   .68666E+02  -.27290E+02
   .37010E+01   .68747E+02  -.27293E+02
   .37020E+01   .68822E+02  -.27296E+02
   .37030E+01   .68890E+02  -.27291E+02
   .37040E+01   .68951E+02  -.27286E+02
   .37060E+01   .69060E+02  -.27267E+02
   .37080E+01   .69151E+02  -.27245E+02
   .37100E+01   .69230E+02  -.27222E+02
   .37120E+01   .69300E+02  -.27201E+02
   .37150E+01   .69395E+02  -.27169E+02
   .37180E+01   .69478E+02  -.27137E+02
   .37200E+01   .69526E+02  -.27116E+02
   .37250E+01   .69640E+02  -.27076E+02
   .37300E+01   .69748E+02  -.27036E+02
   .37380E+01   .69908E+02  -.26970E+02
   .37450E+01   .70039E+02  -.26912E+02
   .37490E+01   .70111E+02  -.26874E+02
   .37530E+01   .70187E+02  -.26835E+02
   .37570E+01   .70242E+02  -.26796E+02
   .37600E+01   .70288E+02  -.26767E+02
   .37700E+01   .70433E+02  -.26668E+02
   .37800E+01   .70565E+02  -.26569E+02
   .37900E+01   .70686E+02  -.26471E+02
   .38000E+01   .70799E+02  -.26372E+02
   .38160E+01   .70966E+02  -.26219E+02
   .38240E+01   .71044E+02  -.26143E+02
   .38280E+01   .71082E+02  -.26104E+02
   .38300E+01   .71101E+02  -.26085E+02
   .38306E+01   .71106E+02  -.26080E+02
   .38309E+01   .71109E+02  -.26077E+02
   .38311E+01   .71111E+02  -.26075E+02
   .38311E+01   .71111E+02  -.26074E+02
   .38312E+01   .71126E+02  -.26074E+02
   .38314E+01   .71114E+02  -.26072E+02
   .38316E+01   .71116E+02  -.26070E+02
   .38319E+01   .71118E+02  -.26067E+02
   .38326E+01   .71125E+02  -.26061E+02
   .38340E+01   .71137E+02  -.26047E+02
   .38360E+01   .71155E+02  -.26028E+02
   .38410E+01   .71199E+02  -.25981E+02
   .38500E+01   .71273E+02  -.25896E+02
   .38700E+01   .71420E+02  -.25707E+02
   .38850E+01   .71512E+02  -.25565E+02
   .39000E+01   .71587E+02  -.25423E+02
   .39080E+01   .71618E+02  -.25351E+02
   .39150E+01   .71638E+02  -.25287E+02
   .39230E+01   .71651E+02  -.25214E+02
   .39300E+01   .71651E+02  -.25151E+02
   .39350E+01   .71642E+02  -.25106E+02
   .39400E+01   .71622E+02  -.25060E+02
   .39450E+01   .71588E+02  -.25015E+02
   .39500E+01   .71531E+02  -.24970E+02
   .39540E+01   .71457E+02  -.24933E+02
   .39570E+01   .71373E+02  -.24906E+02
   .39590E+01   .71294E+02  -.24888E+02
   .39620E+01   .71106E+02  -.24861E+02
   .39640E+01   .70881E+02  -.24843E+02
   .39660E+01   .70401E+02  -.24824E+02
   .39686E+01   .44361E+02  -.24801E+02
   .39687E+01   .70746E+02  -.10816E+03
   .39688E+01   .97130E+02  -.24799E+02
   .39698E+01   .71942E+02  -.24790E+02
   .39709E+01   .54467E+02  -.24781E+02
   .39709E+01   .72165E+02  -.80801E+02
   .39710E+01   .89865E+02  -.24779E+02
   .39721E+01   .72971E+02  -.24770E+02
   .39726E+01   .72439E+02  -.24765E+02
   .39731E+01   .72060E+02  -.24761E+02
   .39737E+01   .71711E+02  -.24756E+02
   .39742E+01   .71365E+02  -.24751E+02
   .39744E+01   .71185E+02  -.24750E+02
   .39747E+01   .70790E+02  -.24747E+02
   .39750E+01   .69870E+02  -.24744E+02
   .39752E+01   .65270E+02  -.24742E+02
   .39753E+01   .71177E+02  -.43867E+02
   .39754E+01   .77168E+02  -.24741E+02
   .39755E+01   .73323E+02  -.24740E+02
   .39757E+01   .72248E+02  -.24738E+02
   .39758E+01   .71931E+02  -.24810E+02
   .39758E+01   .71659E+02  -.24737E+02
   .39759E+01   .71360E+02  -.24736E+02
   .39760E+01   .70982E+02  -.24735E+02
   .39761E+01   .70431E+02  -.24735E+02
   .39762E+01   .69064E+02  -.24734E+02
   .39762E+01   .70046E+02  -.28174E+02
   .39763E+01   .71012E+02  -.31614E+02
   .39763E+01   .71925E+02  -.28173E+02
   .39764E+01   .72800E+02  -.24732E+02
   .39764E+01   .71605E+02  -.24961E+02
   .39765E+01   .70994E+02  -.25311E+02
   .39765E+01   .70710E+02  -.25661E+02
   .39766E+01   .70276E+02  -.25721E+02
   .39766E+01   .70816E+02  -.25720E+02
   .39767E+01   .71287E+02  -.28999E+02
   .39767E+01   .71735E+02  -.27360E+02
   .39767E+01   .72151E+02  -.25720E+02
   .39768E+01   .71653E+02  -.25719E+02
   .39768E+01   .71165E+02  -.25719E+02
   .39769E+01   .71769E+02  -.28653E+02
   .39770E+01   .72454E+02  -.25718E+02
   .39770E+01   .72140E+02  -.25718E+02
   .39771E+01   .71762E+02  -.25718E+02
   .39771E+01   .72260E+02  -.28091E+02
   .39772E+01   .72891E+02  -.25717E+02
   .39774E+01   .72241E+02  -.25716E+02
   .39776E+01   .72080E+02  -.25715E+02
   .39778E+01   .72021E+02  -.25715E+02
   .39779E+01   .71983E+02  -.25714E+02
   .39782E+01   .71938E+02  -.25712E+02
   .39786E+01   .71909E+02  -.25710E+02
   .39789E+01   .71898E+02  -.25708E+02
   .39793E+01   .71890E+02  -.25706E+02
   .39800E+01   .71888E+02  -.25703E+02
   .39808E+01   .71894E+02  -.25698E+02
   .39815E+01   .71903E+02  -.25695E+02
   .39823E+01   .71915E+02  -.25691E+02
   .39830E+01   .71927E+02  -.25687E+02
   .39845E+01   .71953E+02  -.25679E+02
   .39860E+01   .71981E+02  -.25671E+02
   .39875E+01   .72010E+02  -.25663E+02
   .39890E+01   .72038E+02  -.25656E+02
   .39920E+01   .72096E+02  -.25637E+02
   .39950E+01   .72154E+02  -.25619E+02
   .39980E+01   .72211E+02  -.25600E+02
   .40000E+01   .72249E+02  -.25588E+02
   .40050E+01   .72338E+02  -.25544E+02
   .40100E+01   .72418E+02  -.25500E+02
   .40150E+01   .72492E+02  -.25455E+02
   .40200E+01   .72562E+02  -.25411E+02
   .40250E+01   .72629E+02  -.25367E+02
   .40300E+01   .72693E+02  -.25323E+02
   .40400E+01   .72815E+02  -.25234E+02
   .40500E+01   .72929E+02  -.25147E+02
   .40600E+01   .73037E+02  -.25060E+02
   .40730E+01   .73170E+02  -.24949E+02
   .40800E+01   .73239E+02  -.24889E+02
   .40860E+01   .73297E+02  -.24838E+02
   .40980E+01   .73408E+02  -.24737E+02
   .41100E+01   .73515E+02  -.24637E+02
   .41250E+01   .73644E+02  -.24511E+02
   .41400E+01   .73767E+02  -.24386E+02
   .41600E+01   .73924E+02  -.24223E+02
   .41900E+01   .74147E+02  -.23979E+02
   .42200E+01   .74356E+02  -.23743E+02
   .42500E+01   .74553E+02  -.23507E+02
   .42800E+01   .74740E+02  -.23278E+02
   .43000E+01   .74861E+02  -.23126E+02
   .43300E+01   .75034E+02  -.22903E+02
   .43500E+01   .75144E+02  -.22756E+02
   .43800E+01   .75303E+02  -.22533E+02
   .44000E+01   .75404E+02  -.22385E+02
   .44200E+01   .75503E+02  -.22243E+02
   .44500E+01   .75646E+02  -.22030E+02
   .44700E+01   .75738E+02  -.21892E+02
   .45000E+01   .75872E+02  -.21684E+02
   .45400E+01   .76042E+02  -.21415E+02
   .45800E+01   .76202E+02  -.21145E+02
   .46200E+01   .76353E+02  -.20886E+02
   .46500E+01   .76461E+02  -.20692E+02
   .46900E+01   .76600E+02  -.20443E+02
   .47300E+01   .76731E+02  -.20194E+02
   .47700E+01   .76856E+02  -.19954E+02
   .48000E+01   .76947E+02  -.19774E+02
   .48300E+01   .77035E+02  -.19600E+02
   .48500E+01   .77091E+02  -.19484E+02
   .49000E+01   .77226E+02  -.19195E+02
   .49500E+01   .77352E+02  -.18919E+02
   .50000E+01   .77472E+02  -.18643E+02
   .50200E+01   .77518E+02  -.18536E+02
   .50500E+01   .77585E+02  -.18375E+02
   .51000E+01   .77691E+02  -.18114E+02
   .51500E+01   .77790E+02  -.17862E+02
   .52000E+01   .77884E+02  -.17610E+02
   .52600E+01   .77990E+02  -.17322E+02
   .53100E+01   .78075E+02  -.17082E+02
   .53600E+01   .78154E+02  -.16851E+02
   .54147E+01   .78234E+02  -.16598E+02
   .54900E+01   .78338E+02  -.16265E+02
   .55200E+01   .78378E+02  -.16134E+02
   .55600E+01   .78427E+02  -.15960E+02
   .55900E+01   .78462E+02  -.15834E+02
   .56300E+01   .78506E+02  -.15665E+02
   .56600E+01   .78538E+02  -.15542E+02
   .57000E+01   .78578E+02  -.15378E+02
   .57400E+01   .78616E+02  -.15219E+02
   .57800E+01   .78652E+02  -.15061E+02
   .58500E+01   .78710E+02  -.14792E+02
   .59200E+01   .78762E+02  -.14531E+02
   .60000E+01   .78815E+02  -.14242E+02
   .60500E+01   .78845E+02  -.14069E+02
   .61000E+01   .78874E+02  -.13896E+02
   .61500E+01   .78900E+02  -.13729E+02
   .62000E+01   .78924E+02  -.13563E+02
   .62500E+01   .78947E+02  -.13403E+02
   .63000E+01   .78968E+02  -.13243E+02
   .63500E+01   .78988E+02  -.13089E+02
   .64038E+01   .79007E+02  -.12924E+02
   .64800E+01   .79032E+02  -.12700E+02
   .65500E+01   .79054E+02  -.12494E+02
   .66300E+01   .79073E+02  -.12270E+02
   .67000E+01   .79087E+02  -.12074E+02
   .67800E+01   .79100E+02  -.11862E+02
   .68500E+01   .79108E+02  -.11677E+02
   .69200E+01   .79115E+02  -.11498E+02
   .70000E+01   .79122E+02  -.11300E+02
   .70700E+01   .79125E+02  -.11131E+02
   .71500E+01   .79126E+02  -.10938E+02
   .72200E+01   .79124E+02  -.10777E+02
   .73000E+01   .79119E+02  -.10594E+02
   .74000E+01   .79109E+02  -.10374E+02
   .75000E+01   .79097E+02  -.10162E+02
   .76500E+01   .79073E+02  -.98579E+01
   .78000E+01   .79043E+02  -.95682E+01
   .79000E+01   .79020E+02  -.93827E+01
   .80000E+01   .78996E+02  -.92032E+01
   .80200E+01   .78991E+02  -.91678E+01
   .80478E+01   .78984E+02  -.91191E+01
   .82000E+01   .78941E+02  -.88593E+01
   .84000E+01   .78879E+02  -.85361E+01
   .85500E+01   .78829E+02  -.83054E+01
   .86966E+01   .78775E+02  -.80879E+01
   .87700E+01   .78747E+02  -.79825E+01
   .88500E+01   .78715E+02  -.78702E+01
   .89200E+01   .78686E+02  -.77740E+01
   .90000E+01   .78653E+02  -.76664E+01
   .91500E+01   .78587E+02  -.74696E+01
   .93000E+01   .78517E+02  -.72809E+01
   .94000E+01   .78467E+02  -.71594E+01
   .95000E+01   .78417E+02  -.70412E+01
   .96500E+01   .78337E+02  -.68699E+01
   .98000E+01   .78255E+02  -.67052E+01
   .99000E+01   .78198E+02  -.65990E+01
   .10000E+02   .78140E+02  -.64955E+01
   .10150E+02   .78049E+02  -.63433E+01
   .10300E+02   .77953E+02  -.61969E+01
   .10450E+02   .77851E+02  -.60558E+01
   .10600E+02   .77745E+02  -.59199E+01
   .10750E+02   .77633E+02  -.57889E+01
   .10900E+02   .77514E+02  -.56626E+01
   .11100E+02   .77346E+02  -.55010E+01
   .11160E+02   .77293E+02  -.54543E+01
   .11220E+02   .77238E+02  -.54076E+01
   .11360E+02   .77106E+02  -.53018E+01
   .11500E+02   .76965E+02  -.51994E+01
   .11570E+02   .76891E+02  -.51499E+01
   .11650E+02   .76803E+02  -.50932E+01
   .11720E+02   .76723E+02  -.50453E+01
   .11800E+02   .76627E+02  -.49905E+01
   .11880E+02   .76528E+02  -.49375E+01
   .11950E+02   .76437E+02  -.48911E+01
   .12030E+02   .76327E+02  -.48395E+01
   .12100E+02   .76227E+02  -.47944E+01
   .12150E+02   .76152E+02  -.47632E+01
   .12200E+02   .76074E+02  -.47321E+01
   .12250E+02   .75993E+02  -.47010E+01
   .12300E+02   .75908E+02  -.46698E+01
   .12380E+02   .75766E+02  -.46218E+01
   .12450E+02   .75632E+02  -.45798E+01
   .12530E+02   .75467E+02  -.45333E+01
   .12570E+02   .75380E+02  -.45100E+01
   .12600E+02   .75311E+02  -.44926E+01
   .12640E+02   .75216E+02  -.44700E+01
   .12680E+02   .75116E+02  -.44475E+01
   .12710E+02   .75038E+02  -.44306E+01
   .12750E+02   .74928E+02  -.44080E+01
   .12790E+02   .74812E+02  -.43861E+01
   .12830E+02   .74689E+02  -.43643E+01
   .12870E+02   .74557E+02  -.43424E+01
   .12900E+02   .74452E+02  -.43260E+01
   .12930E+02   .74341E+02  -.43101E+01
   .12970E+02   .74182E+02  -.42889E+01
   .12990E+02   .74097E+02  -.42783E+01
   .13010E+02   .74008E+02  -.42676E+01
   .13030E+02   .73915E+02  -.42570E+01
   .13050E+02   .73817E+02  -.42464E+01
   .13065E+02   .73741E+02  -.42387E+01
   .13080E+02   .73661E+02  -.42310E+01
   .13100E+02   .73549E+02  -.42207E+01
   .13120E+02   .73429E+02  -.42104E+01
   .13140E+02   .73302E+02  -.42001E+01
   .13160E+02   .73165E+02  -.41898E+01
   .13180E+02   .73018E+02  -.41795E+01
   .13200E+02   .72859E+02  -.41692E+01
   .13210E+02   .72773E+02  -.41642E+01
   .13220E+02   .72684E+02  -.41593E+01
   .13235E+02   .72542E+02  -.41518E+01
   .13250E+02   .72388E+02  -.41444E+01
   .13265E+02   .72220E+02  -.41369E+01
   .13280E+02   .72036E+02  -.41295E+01
   .13288E+02   .71930E+02  -.41255E+01
   .13295E+02   .71831E+02  -.41220E+01
   .13303E+02   .71713E+02  -.41180E+01
   .13310E+02   .71602E+02  -.41146E+01
   .13320E+02   .71432E+02  -.41096E+01
   .13325E+02   .71341E+02  -.41071E+01
   .13330E+02   .71245E+02  -.41046E+01
   .13338E+02   .71081E+02  -.41007E+01
   .13345E+02   .70924E+02  -.40972E+01
   .13352E+02   .70753E+02  -.40937E+01
   .13356E+02   .70648E+02  -.40917E+01
   .13360E+02   .70536E+02  -.40897E+01
   .13364E+02   .70418E+02  -.40877E+01
   .13368E+02   .70292E+02  -.40858E+01
   .13372E+02   .70156E+02  -.40838E+01
   .13375E+02   .70048E+02  -.40823E+01
   .13379E+02   .69892E+02  -.40803E+01
   .13383E+02   .69723E+02  -.40783E+01
   .13386E+02   .69586E+02  -.40768E+01
   .13390E+02   .69385E+02  -.40748E+01
   .13393E+02   .69218E+02  -.40733E+01
   .13397E+02   .68971E+02  -.40714E+01
   .13400E+02   .68761E+02  -.40699E+01
   .13401E+02   .68646E+02  -.40691E+01
   .13403E+02   .68524E+02  -.40684E+01
   .13405E+02   .68394E+02  -.40676E+01
   .13406E+02   .68253E+02  -.40669E+01
   .13408E+02   .68101E+02  -.40661E+01
   .13409E+02   .67934E+02  -.40654E+01
   .13410E+02   .67751E+02  -.40647E+01
   .13412E+02   .67548E+02  -.40639E+01
   .13413E+02   .67397E+02  -.40634E+01
   .13414E+02   .67233E+02  -.40629E+01
   .13415E+02   .67049E+02  -.40624E+01
   .13416E+02   .66835E+02  -.40620E+01
   .13416E+02   .66826E+02  -.41073E+01
   .13416E+02   .66826E+02  -.41526E+01
   .13416E+02   .66815E+02  -.41980E+01
   .13417E+02   .66793E+02  -.40617E+01
   .13417E+02   .66555E+02  -.40613E+01
   .13418E+02   .66283E+02  -.40609E+01
   .13418E+02   .66233E+02  -.41782E+01
   .13419E+02   .66178E+02  -.40606E+01
   .13420E+02   .65894E+02  -.40602E+01
   .13420E+02   .65583E+02  -.40599E+01
   .13420E+02   .65424E+02  -.40598E+01
   .13421E+02   .65169E+02  -.40595E+01
   .13421E+02   .64808E+02  -.40594E+01
   .13422E+02   .64272E+02  -.40592E+01
   .13422E+02   .64513E+02  -.55394E+01
   .13422E+02   .64675E+02  -.62795E+01
   .13422E+02   .65017E+02  -.40589E+01
   .13423E+02   .64034E+02  -.40587E+01
   .13423E+02   .62440E+02  -.40585E+01
   .13423E+02   .63754E+02  -.10311E+02
   .13424E+02   .64542E+02  -.40583E+01
   .13424E+02   .64001E+02  -.69132E+01
   .13424E+02   .64037E+02  -.83406E+01
   .13424E+02   .64068E+02  -.61993E+01
   .13424E+02   .63976E+02  -.40580E+01
   .13424E+02   .64299E+02  -.40580E+01
   .13424E+02   .64432E+02  -.93325E+01
   .13425E+02   .64827E+02  -.40578E+01
   .13425E+02   .65274E+02  -.40578E+01
   .13425E+02   .65553E+02  -.40577E+01
   .13425E+02   .63892E+02  -.40576E+01
   .13425E+02   .63069E+02  -.47170E+01
   .13425E+02   .62287E+02  -.54826E+01
   .13425E+02   .62264E+02  -.67044E+01
   .13426E+02   .62590E+02  -.74776E+01
   .13426E+02   .63108E+02  -.76087E+01
   .13426E+02   .63296E+02  -.77421E+01
   .13426E+02   .63436E+02  -.78669E+01
   .13427E+02   .63553E+02  -.79917E+01
   .13427E+02   .63585E+02  -.80500E+01
   .13427E+02   .63620E+02  -.81083E+01
   .13427E+02   .63703E+02  -.81666E+01
   .13427E+02   .63793E+02  -.82852E+01
   .13427E+02   .63888E+02  -.83850E+01
   .13427E+02   .63978E+02  -.84865E+01
   .13428E+02   .64070E+02  -.85819E+01
   .13428E+02   .64156E+02  -.86706E+01
   .13428E+02   .64245E+02  -.87610E+01
   .13428E+02   .64329E+02  -.88384E+01
   .13429E+02   .64458E+02  -.89559E+01
   .13429E+02   .64542E+02  -.90237E+01
   .13429E+02   .64669E+02  -.91263E+01
   .13429E+02   .64751E+02  -.91852E+01
   .13429E+02   .64875E+02  -.92710E+01
   .13430E+02   .64955E+02  -.93237E+01
   .13430E+02   .65077E+02  -.93962E+01
   .13431E+02   .65271E+02  -.95042E+01
   .13431E+02   .65458E+02  -.95934E+01
   .13432E+02   .65637E+02  -.96690E+01
   .13432E+02   .65811E+02  -.97334E+01
   .13432E+02   .65971E+02  -.97824E+01
   .13433E+02   .66126E+02  -.98265E+01
   .13434E+02   .66273E+02  -.98629E+01
   .13434E+02   .66413E+02  -.98899E+01
   .13434E+02   .66542E+02  -.99119E+01
   .13435E+02   .66671E+02  -.99308E+01
   .13436E+02   .66903E+02  -.99531E+01
   .13437E+02   .67110E+02  -.99642E+01
   .13438E+02   .67298E+02  -.99680E+01
   .13439E+02   .67467E+02  -.99646E+01
   .13440E+02   .67620E+02  -.99591E+01
   .13441E+02   .67824E+02  -.99457E+01
   .13443E+02   .68002E+02  -.99324E+01
   .13444E+02   .68108E+02  -.99240E+01
   .13445E+02   .68207E+02  -.99157E+01
   .13446E+02   .68342E+02  -.99071E+01
   .13448E+02   .68463E+02  -.98985E+01
   .13449E+02   .68539E+02  -.98958E+01
   .13450E+02   .68610E+02  -.98930E+01
   .13453E+02   .68805E+02  -.98973E+01
   .13455E+02   .68922E+02  -.99059E+01
   .13458E+02   .69089E+02  -.99250E+01
   .13460E+02   .69194E+02  -.99404E+01
   .13464E+02   .69396E+02  -.99735E+01
   .13468E+02   .69589E+02  -.10004E+02
   .13472E+02   .69774E+02  -.10030E+02
   .13475E+02   .69907E+02  -.10046E+02
   .13479E+02   .70076E+02  -.10059E+02
   .13483E+02   .70237E+02  -.10064E+02
   .13487E+02   .70386E+02  -.10062E+02
   .13490E+02   .70490E+02  -.10061E+02
   .13494E+02   .70620E+02  -.10053E+02
   .13498E+02   .70740E+02  -.10044E+02
   .13502E+02   .70850E+02  -.10035E+02
   .13505E+02   .70928E+02  -.10028E+02
   .13509E+02   .71025E+02  -.10020E+02
   .13513E+02   .71115E+02  -.10012E+02
   .13520E+02   .71263E+02  -.10002E+02
   .13530E+02   .71458E+02  -.99959E+01
   .13540E+02   .71638E+02  -.99922E+01
   .13550E+02   .71809E+02  -.99848E+01
   .13560E+02   .71969E+02  -.99775E+01
   .13568E+02   .72087E+02  -.99661E+01
   .13575E+02   .72187E+02  -.99561E+01
   .13583E+02   .72292E+02  -.99447E+01
   .13590E+02   .72378E+02  -.99348E+01
   .13600E+02   .72493E+02  -.99223E+01
   .13610E+02   .72601E+02  -.99099E+01
   .13620E+02   .72704E+02  -.98974E+01
   .13630E+02   .72801E+02  -.98849E+01
   .13645E+02   .72940E+02  -.98680E+01
   .13660E+02   .73069E+02  -.98511E+01
   .13680E+02   .73229E+02  -.98285E+01
   .13700E+02   .73377E+02  -.98059E+01
   .13715E+02   .73480E+02  -.97888E+01
   .13730E+02   .73578E+02  -.97717E+01
   .13750E+02   .73701E+02  -.97489E+01
   .13770E+02   .73816E+02  -.97260E+01
   .13790E+02   .73924E+02  -.97032E+01
   .13810E+02   .74026E+02  -.96804E+01
   .13830E+02   .74123E+02  -.96576E+01
   .13850E+02   .74214E+02  -.96347E+01
   .13880E+02   .74341E+02  -.96009E+01
   .13920E+02   .74497E+02  -.95557E+01
   .13960E+02   .74639E+02  -.95106E+01
   .14000E+02   .74770E+02  -.94654E+01
   .14030E+02   .74860E+02  -.94311E+01
   .14070E+02   .74972E+02  -.93853E+01
   .14110E+02   .75074E+02  -.93396E+01
   .14150E+02   .75168E+02  -.92938E+01
   .14180E+02   .75233E+02  -.92611E+01
   .14220E+02   .75313E+02  -.92175E+01
   .14260E+02   .75388E+02  -.91739E+01
   .14300E+02   .75457E+02  -.91303E+01
   .14340E+02   .75521E+02  -.90883E+01
   .14380E+02   .75580E+02  -.90463E+01
   .14410E+02   .75621E+02  -.90148E+01
   .14450E+02   .75672E+02  -.89728E+01
   .14480E+02   .75708E+02  -.89421E+01
   .14520E+02   .75751E+02  -.89013E+01
   .14594E+02   .75821E+02  -.88259E+01
   .14620E+02   .75843E+02  -.87995E+01
   .14650E+02   .75865E+02  -.87693E+01
   .14700E+02   .75898E+02  -.87189E+01
   .14750E+02   .75925E+02  -.86695E+01
   .14800E+02   .75947E+02  -.86201E+01
   .14850E+02   .75962E+02  -.85720E+01
   .14900E+02   .75972E+02  -.85239E+01
   .14950E+02   .75975E+02  -.84757E+01
   .14970E+02   .75975E+02  -.84565E+01
   .15000E+02   .75973E+02  -.84276E+01
   .15050E+02   .75964E+02  -.83796E+01
   .15100E+02   .75946E+02  -.83315E+01
   .15150E+02   .75921E+02  -.82835E+01
   .15200E+02   .75886E+02  -.82354E+01
   .15250E+02   .75841E+02  -.81891E+01
   .15270E+02   .75820E+02  -.81706E+01
   .15300E+02   .75784E+02  -.81428E+01
   .15320E+02   .75758E+02  -.81243E+01
   .15350E+02   .75714E+02  -.80965E+01
   .15380E+02   .75664E+02  -.80687E+01
   .15400E+02   .75627E+02  -.80502E+01
   .15430E+02   .75566E+02  -.80234E+01
   .15450E+02   .75520E+02  -.80056E+01
   .15470E+02   .75471E+02  -.79877E+01
   .15500E+02   .75387E+02  -.79609E+01
   .15520E+02   .75324E+02  -.79431E+01
   .15550E+02   .75217E+02  -.79163E+01
   .15560E+02   .75177E+02  -.79074E+01
   .15570E+02   .75135E+02  -.78985E+01
   .15585E+02   .75067E+02  -.78851E+01
   .15600E+02   .74993E+02  -.78717E+01
   .15610E+02   .74939E+02  -.78631E+01
   .15620E+02   .74881E+02  -.78544E+01
   .15630E+02   .74818E+02  -.78458E+01
   .15640E+02   .74751E+02  -.78371E+01
   .15650E+02   .74677E+02  -.78285E+01
   .15660E+02   .74597E+02  -.78198E+01
   .15670E+02   .74508E+02  -.78112E+01
   .15680E+02   .74410E+02  -.78025E+01
   .15690E+02   .74299E+02  -.77939E+01
   .15695E+02   .74238E+02  -.77896E+01
   .15700E+02   .74172E+02  -.77853E+01
   .15705E+02   .74102E+02  -.77809E+01
   .15710E+02   .74025E+02  -.77766E+01
   .15715E+02   .73941E+02  -.77723E+01
   .15720E+02   .73850E+02  -.77680E+01
   .15725E+02   .73748E+02  -.77636E+01
   .15730E+02   .73633E+02  -.77593E+01
   .15733E+02   .73557E+02  -.77567E+01
   .15735E+02   .73502E+02  -.77550E+01
   .15738E+02   .73414E+02  -.77524E+01
   .15740E+02   .73350E+02  -.77507E+01
   .15743E+02   .73246E+02  -.77481E+01
   .15746E+02   .73128E+02  -.77455E+01
   .15749E+02   .72993E+02  -.77429E+01
   .15751E+02   .72891E+02  -.77412E+01
   .15752E+02   .72806E+02  -.77399E+01
   .15754E+02   .72713E+02  -.77386E+01
   .15755E+02   .72609E+02  -.77373E+01
   .15757E+02   .72493E+02  -.77360E+01
   .15759E+02   .72359E+02  -.77347E+01
   .15759E+02   .72279E+02  -.77340E+01
   .15760E+02   .72202E+02  -.77334E+01
   .15761E+02   .72119E+02  -.77328E+01
   .15761E+02   .72039E+02  -.77323E+01
   .15762E+02   .71950E+02  -.77318E+01
   .15763E+02   .71820E+02  -.77311E+01
   .15763E+02   .71812E+02  -.77684E+01
   .15763E+02   .71799E+02  -.78428E+01
   .15763E+02   .71776E+02  -.77306E+01
   .15764E+02   .71611E+02  -.77300E+01
   .15764E+02   .71538E+02  -.77298E+01
   .15765E+02   .71431E+02  -.77294E+01
   .15765E+02   .71342E+02  -.77292E+01
   .15765E+02   .71202E+02  -.77288E+01
   .15766E+02   .71073E+02  -.77286E+01
   .15766E+02   .70828E+02  -.77283E+01
   .15766E+02   .70826E+02  -.78987E+01
   .15766E+02   .70822E+02  -.82396E+01
   .15767E+02   .70776E+02  -.77277E+01
   .15767E+02   .70567E+02  -.77276E+01
   .15767E+02   .70325E+02  -.77274E+01
   .15767E+02   .70001E+02  -.77272E+01
   .15767E+02   .69556E+02  -.77271E+01
   .15767E+02   .69727E+02  -.86799E+01
   .15768E+02   .70050E+02  -.10586E+02
   .15768E+02   .70247E+02  -.86796E+01
   .15768E+02   .70186E+02  -.77265E+01
   .15768E+02   .69701E+02  -.77264E+01
   .15768E+02   .69506E+02  -.99850E+01
   .15769E+02   .69349E+02  -.83670E+01
   .15769E+02   .69314E+02  -.86330E+01
   .15769E+02   .69708E+02  -.88949E+01
   .15769E+02   .70173E+02  -.12113E+02
   .15769E+02   .71200E+02  -.96088E+01
   .15769E+02   .70914E+02  -.97125E+01
   .15770E+02   .70860E+02  -.97778E+01
   .15770E+02   .70847E+02  -.98365E+01
   .15770E+02   .70851E+02  -.98958E+01
   .15771E+02   .70912E+02  -.10032E+02
   .15771E+02   .70979E+02  -.10126E+02
   .15771E+02   .71074E+02  -.10229E+02
   .15772E+02   .71173E+02  -.10324E+02
   .15773E+02   .71280E+02  -.10402E+02
   .15773E+02   .71383E+02  -.10462E+02
   .15774E+02   .71482E+02  -.10516E+02
   .15774E+02   .71580E+02  -.10561E+02
   .15774E+02   .71674E+02  -.10594E+02
   .15775E+02   .71763E+02  -.10624E+02
   .15776E+02   .71848E+02  -.10648E+02
   .15776E+02   .71929E+02  -.10665E+02
   .15776E+02   .72004E+02  -.10677E+02
   .15777E+02   .72075E+02  -.10690E+02
   .15778E+02   .72206E+02  -.10703E+02
   .15779E+02   .72324E+02  -.10708E+02
   .15780E+02   .72427E+02  -.10708E+02
   .15781E+02   .72520E+02  -.10703E+02
   .15782E+02   .72603E+02  -.10698E+02
   .15783E+02   .72678E+02  -.10693E+02
   .15784E+02   .72745E+02  -.10686E+02
   .15785E+02   .72807E+02  -.10680E+02
   .15786E+02   .72864E+02  -.10675E+02
   .15787E+02   .72916E+02  -.10670E+02
   .15788E+02   .72963E+02  -.10665E+02
   .15789E+02   .73007E+02  -.10660E+02
   .15791E+02   .73088E+02  -.10656E+02
   .15793E+02   .73159E+02  -.10652E+02
   .15795E+02   .73225E+02  -.10655E+02
   .15797E+02   .73285E+02  -.10657E+02
   .15800E+02   .73370E+02  -.10667E+02
   .15805E+02   .73503E+02  -.10687E+02
   .15810E+02   .73628E+02  -.10707E+02
   .15815E+02   .73747E+02  -.10724E+02
   .15820E+02   .73858E+02  -.10732E+02
   .15825E+02   .73964E+02  -.10736E+02
   .15830E+02   .74059E+02  -.10734E+02
   .15835E+02   .74145E+02  -.10727E+02
   .15840E+02   .74222E+02  -.10720E+02
   .15845E+02   .74292E+02  -.10713E+02
   .15850E+02   .74355E+02  -.10707E+02
   .15855E+02   .74414E+02  -.10700E+02
   .15860E+02   .74470E+02  -.10694E+02
   .15870E+02   .74573E+02  -.10686E+02
   .15880E+02   .74667E+02  -.10677E+02
   .15890E+02   .74753E+02  -.10668E+02
   .15900E+02   .74834E+02  -.10659E+02
   .15910E+02   .74910E+02  -.10650E+02
   .15920E+02   .74979E+02  -.10641E+02
   .15930E+02   .75042E+02  -.10630E+02
   .15940E+02   .75102E+02  -.10619E+02
   .15950E+02   .75157E+02  -.10608E+02
   .15960E+02   .75209E+02  -.10597E+02
   .15980E+02   .75303E+02  -.10576E+02
   .16000E+02   .75387E+02  -.10554E+02
   .16020E+02   .75462E+02  -.10532E+02
   .16040E+02   .75528E+02  -.10510E+02
   .16060E+02   .75586E+02  -.10489E+02
   .16074E+02   .75623E+02  -.10474E+02
   .16090E+02   .75661E+02  -.10457E+02
   .16110E+02   .75702E+02  -.10436E+02
   .16130E+02   .75736E+02  -.10415E+02
   .16150E+02   .75765E+02  -.10394E+02
   .16170E+02   .75786E+02  -.10373E+02
   .16190E+02   .75800E+02  -.10353E+02
   .16210E+02   .75806E+02  -.10332E+02
   .16230E+02   .75802E+02  -.10311E+02
   .16245E+02   .75792E+02  -.10295E+02
   .16260E+02   .75774E+02  -.10280E+02
   .16270E+02   .75757E+02  -.10270E+02
   .16280E+02   .75734E+02  -.10260E+02
   .16290E+02   .75706E+02  -.10249E+02
   .16300E+02   .75670E+02  -.10239E+02
   .16310E+02   .75625E+02  -.10229E+02
   .16320E+02   .75567E+02  -.10219E+02
   .16325E+02   .75532E+02  -.10214E+02
   .16330E+02   .75492E+02  -.10208E+02
   .16335E+02   .75446E+02  -.10203E+02
   .16340E+02   .75392E+02  -.10198E+02
   .16345E+02   .75327E+02  -.10193E+02
   .16350E+02   .75248E+02  -.10188E+02
   .16355E+02   .75150E+02  -.10183E+02
   .16358E+02   .75076E+02  -.10180E+02
   .16360E+02   .75020E+02  -.10178E+02
   .16363E+02   .74918E+02  -.10175E+02
   .16365E+02   .74835E+02  -.10172E+02
   .16367E+02   .74734E+02  -.10170E+02
   .16369E+02   .74608E+02  -.10168E+02
   .16372E+02   .74334E+02  -.10165E+02
   .16374E+02   .74032E+02  -.10163E+02
   .16375E+02   .73803E+02  -.10162E+02
   .16376E+02   .73462E+02  -.10161E+02
   .16377E+02   .72575E+02  -.10160E+02
   .16379E+02   .66502E+02  -.10158E+02
   .16379E+02   .68838E+02  -.18362E+02
   .16379E+02   .73503E+02  -.34768E+02
   .16379E+02   .80465E+02  -.10158E+02
   .16380E+02   .74742E+02  -.10157E+02
   .16381E+02   .68738E+02  -.10156E+02
   .16381E+02   .75459E+02  -.34011E+02
   .16382E+02   .82215E+02  -.10156E+02
   .16382E+02   .78162E+02  -.10155E+02
   .16382E+02   .76950E+02  -.10155E+02
   .16383E+02   .76129E+02  -.10154E+02
   .16383E+02   .75578E+02  -.10154E+02
   .16384E+02   .75192E+02  -.10153E+02
   .16384E+02   .74692E+02  -.10153E+02
   .16385E+02   .74451E+02  -.10152E+02
   .16385E+02   .74152E+02  -.10152E+02
   .16385E+02   .73739E+02  -.10152E+02
   .16385E+02   .72533E+02  -.10152E+02
   .16385E+02   .73130E+02  -.12473E+02
   .16385E+02   .73723E+02  -.14795E+02
   .16386E+02   .74303E+02  -.17116E+02
   .16386E+02   .75461E+02  -.13634E+02
   .16386E+02   .75962E+02  -.10151E+02
   .16386E+02   .74909E+02  -.10151E+02
   .16386E+02   .73585E+02  -.10151E+02
   .16387E+02   .74158E+02  -.14919E+02
   .16387E+02   .74728E+02  -.11068E+02
   .16387E+02   .75156E+02  -.11160E+02
   .16387E+02   .75132E+02  -.12627E+02
   .16388E+02   .75482E+02  -.11634E+02
   .16388E+02   .75303E+02  -.11635E+02
   .16388E+02   .75236E+02  -.11637E+02
   .16389E+02   .75203E+02  -.11638E+02
   .16389E+02   .75186E+02  -.11639E+02
   .16389E+02   .75177E+02  -.11640E+02
   .16389E+02   .75173E+02  -.11641E+02
   .16390E+02   .75172E+02  -.11642E+02
   .16390E+02   .75172E+02  -.11643E+02
   .16390E+02   .75174E+02  -.11644E+02
   .16391E+02   .75179E+02  -.11646E+02
   .16391E+02   .75184E+02  -.11648E+02
   .16392E+02   .75189E+02  -.11649E+02
   .16392E+02   .75203E+02  -.11652E+02
   .16393E+02   .75216E+02  -.11654E+02
   .16394E+02   .75232E+02  -.11657E+02
   .16395E+02   .75246E+02  -.11660E+02
   .16395E+02   .75260E+02  -.11663E+02
   .16396E+02   .75276E+02  -.11666E+02
   .16397E+02   .75306E+02  -.11671E+02
   .16399E+02   .75336E+02  -.11677E+02
   .16400E+02   .75366E+02  -.11682E+02
   .16402E+02   .75395E+02  -.11688E+02
   .16403E+02   .75424E+02  -.11693E+02
   .16405E+02   .75454E+02  -.11699E+02
   .16408E+02   .75511E+02  -.11705E+02
   .16410E+02   .75549E+02  -.11709E+02
   .16414E+02   .75619E+02  -.11709E+02
   .16418E+02   .75684E+02  -.11709E+02
   .16422E+02   .75744E+02  -.11703E+02
   .16425E+02   .75786E+02  -.11698E+02
   .16429E+02   .75836E+02  -.11690E+02
   .16433E+02   .75882E+02  -.11682E+02
   .16437E+02   .75925E+02  -.11674E+02
   .16440E+02   .75953E+02  -.11668E+02
   .16448E+02   .76026E+02  -.11660E+02
   .16455E+02   .76086E+02  -.11653E+02
   .16462E+02   .76143E+02  -.11646E+02
   .16470E+02   .76203E+02  -.11638E+02
   .16480E+02   .76275E+02  -.11629E+02
   .16490E+02   .76343E+02  -.11621E+02
   .16505E+02   .76438E+02  -.11604E+02
   .16520E+02   .76525E+02  -.11587E+02
   .16535E+02   .76605E+02  -.11570E+02
   .16550E+02   .76679E+02  -.11553E+02
   .16560E+02   .76726E+02  -.11543E+02
   .16570E+02   .76771E+02  -.11532E+02
   .16585E+02   .76837E+02  -.11517E+02
   .16600E+02   .76901E+02  -.11502E+02
   .16620E+02   .76981E+02  -.11481E+02
   .16640E+02   .77057E+02  -.11460E+02
   .16660E+02   .77130E+02  -.11439E+02
   .16680E+02   .77199E+02  -.11418E+02
   .16700E+02   .77266E+02  -.11397E+02
   .16720E+02   .77330E+02  -.11377E+02
   .16750E+02   .77422E+02  -.11345E+02
   .16780E+02   .77509E+02  -.11315E+02
   .16820E+02   .77618E+02  -.11274E+02
   .16860E+02   .77722E+02  -.11234E+02
   .16900E+02   .77821E+02  -.11193E+02
   .16930E+02   .77892E+02  -.11164E+02
   .16970E+02   .77983E+02  -.11125E+02
   .17010E+02   .78070E+02  -.11086E+02
   .17050E+02   .78154E+02  -.11047E+02
   .17090E+02   .78235E+02  -.11008E+02
   .17130E+02   .78313E+02  -.10969E+02
   .17160E+02   .78370E+02  -.10940E+02
   .17200E+02   .78444E+02  -.10901E+02
   .17240E+02   .78516E+02  -.10862E+02
   .17270E+02   .78568E+02  -.10833E+02
   .17310E+02   .78635E+02  -.10794E+02
   .17340E+02   .78684E+02  -.10765E+02
   .17410E+02   .78794E+02  -.10698E+02
   .17440E+02   .78840E+02  -.10669E+02
   .17479E+02   .78897E+02  -.10632E+02
   .17540E+02   .78984E+02  -.10576E+02
   .17600E+02   .79066E+02  -.10521E+02
   .17650E+02   .79132E+02  -.10476E+02
   .17700E+02   .79197E+02  -.10430E+02
   .17750E+02   .79260E+02  -.10384E+02
   .17800E+02   .79320E+02  -.10338E+02
   .17880E+02   .79414E+02  -.10268E+02
   .17950E+02   .79493E+02  -.10207E+02
   .18020E+02   .79570E+02  -.10145E+02
   .18100E+02   .79654E+02  -.10075E+02
   .18180E+02   .79735E+02  -.10007E+02
   .18250E+02   .79802E+02  -.99471E+01
   .18320E+02   .79868E+02  -.98875E+01
   .18400E+02   .79940E+02  -.98194E+01
   .18470E+02   .80001E+02  -.97622E+01
   .18550E+02   .80068E+02  -.96968E+01
   .18630E+02   .80133E+02  -.96315E+01
   .18700E+02   .80188E+02  -.95743E+01
   .18800E+02   .80264E+02  -.94963E+01
   .18900E+02   .80337E+02  -.94183E+01
   .19000E+02   .80407E+02  -.93403E+01
   .19100E+02   .80474E+02  -.92623E+01
   .19180E+02   .80526E+02  -.92024E+01
   .19250E+02   .80570E+02  -.91500E+01
   .19320E+02   .80613E+02  -.90976E+01
   .19400E+02   .80660E+02  -.90377E+01
   .19470E+02   .80700E+02  -.89874E+01
   .19550E+02   .80745E+02  -.89298E+01
   .19630E+02   .80789E+02  -.88722E+01
   .19700E+02   .80826E+02  -.88219E+01
   .19780E+02   .80867E+02  -.87666E+01
   .19850E+02   .80902E+02  -.87182E+01
   .19930E+02   .80941E+02  -.86628E+01
   .20000E+02   .80975E+02  -.86144E+01
   .20070E+02   .81008E+02  -.85672E+01
   .20150E+02   .81044E+02  -.85133E+01
   .20230E+02   .81079E+02  -.84594E+01
   .20300E+02   .81109E+02  -.84123E+01
   .20380E+02   .81143E+02  -.83604E+01
   .20450E+02   .81171E+02  -.83150E+01
   .20520E+02   .81199E+02  -.82696E+01
   .20600E+02   .81229E+02  -.82178E+01
   .20680E+02   .81259E+02  -.81678E+01
   .20750E+02   .81285E+02  -.81241E+01
   .20820E+02   .81310E+02  -.80804E+01
   .20900E+02   .81338E+02  -.80304E+01
   .21000E+02   .81371E+02  -.79699E+01
   .21100E+02   .81404E+02  -.79094E+01
   .21180E+02   .81429E+02  -.78625E+01
   .21250E+02   .81451E+02  -.78214E+01
   .21320E+02   .81472E+02  -.77803E+01
   .21400E+02   .81495E+02  -.77333E+01
   .21500E+02   .81524E+02  -.76764E+01
   .21600E+02   .81552E+02  -.76195E+01
   .21680E+02   .81573E+02  -.75753E+01
   .21750E+02   .81592E+02  -.75366E+01
   .21820E+02   .81610E+02  -.74979E+01
   .21900E+02   .81630E+02  -.74537E+01
   .21960E+02   .81645E+02  -.74216E+01
   .22030E+02   .81661E+02  -.73842E+01
   .22100E+02   .81678E+02  -.73468E+01
   .22163E+02   .81692E+02  -.73131E+01
   .22230E+02   .81708E+02  -.72786E+01
   .22300E+02   .81723E+02  -.72424E+01
   .22400E+02   .81745E+02  -.71908E+01
   .22500E+02   .81766E+02  -.71392E+01
   .22600E+02   .81786E+02  -.70898E+01
   .22700E+02   .81806E+02  -.70403E+01
   .22800E+02   .81825E+02  -.69909E+01
   .22900E+02   .81844E+02  -.69414E+01
   .23000E+02   .81863E+02  -.68938E+01
   .23100E+02   .81880E+02  -.68463E+01
   .23200E+02   .81897E+02  -.67987E+01
   .23300E+02   .81914E+02  -.67511E+01
   .23380E+02   .81927E+02  -.67144E+01
   .23450E+02   .81938E+02  -.66823E+01
   .23520E+02   .81949E+02  -.66502E+01
   .23600E+02   .81961E+02  -.66136E+01
   .23700E+02   .81975E+02  -.65695E+01
   .23800E+02   .81990E+02  -.65253E+01
   .23900E+02   .82003E+02  -.64812E+01
   .24000E+02   .82017E+02  -.64371E+01
   .24070E+02   .82026E+02  -.64073E+01
   .24150E+02   .82036E+02  -.63733E+01
   .24230E+02   .82046E+02  -.63392E+01
   .24300E+02   .82055E+02  -.63094E+01
   .24400E+02   .82066E+02  -.62684E+01
   .24500E+02   .82078E+02  -.62274E+01
   .24600E+02   .82089E+02  -.61864E+01
   .24700E+02   .82100E+02  -.61454E+01
   .24850E+02   .82116E+02  -.60861E+01
   .25000E+02   .82131E+02  -.60268E+01
   .25070E+02   .82138E+02  -.59996E+01
   .25150E+02   .82146E+02  -.59686E+01
   .25230E+02   .82153E+02  -.59375E+01
   .25300E+02   .82159E+02  -.59103E+01
   .25450E+02   .82172E+02  -.58539E+01
   .25600E+02   .82185E+02  -.57975E+01
   .25750E+02   .82196E+02  -.57427E+01
   .25900E+02   .82207E+02  -.56880E+01
   .26050E+02   .82217E+02  -.56349E+01
   .26200E+02   .82227E+02  -.55819E+01
   .26350E+02   .82237E+02  -.55304E+01
   .26500E+02   .82246E+02  -.54788E+01
   .26650E+02   .82254E+02  -.54285E+01
   .26800E+02   .82262E+02  -.53781E+01
   .26950E+02   .82270E+02  -.53292E+01
   .27100E+02   .82277E+02  -.52803E+01
   .27300E+02   .82285E+02  -.52172E+01
   .27470E+02   .82292E+02  -.51635E+01
   .27600E+02   .82297E+02  -.51239E+01
   .27800E+02   .82303E+02  -.50629E+01
   .27950E+02   .82308E+02  -.50186E+01
   .28100E+02   .82312E+02  -.49742E+01
   .28400E+02   .82320E+02  -.48885E+01
   .28700E+02   .82326E+02  -.48051E+01
   .29100E+02   .82334E+02  -.46974E+01
   .29400E+02   .82339E+02  -.46192E+01
   .29700E+02   .82343E+02  -.45430E+01
   .29850E+02   .82345E+02  -.45059E+01
   .30000E+02   .82346E+02  -.44689E+01
   .30200E+02   .82349E+02  -.44203E+01
   .30400E+02   .82350E+02  -.43717E+01
   .30600E+02   .82351E+02  -.43247E+01
   .30800E+02   .82352E+02  -.42778E+01
   .31200E+02   .82352E+02  -.41871E+01
   .31500E+02   .82352E+02  -.41211E+01
   .31900E+02   .82350E+02  -.40357E+01
   .32300E+02   .82348E+02  -.39530E+01
   .32600E+02   .82345E+02  -.38928E+01
   .33000E+02   .82342E+02  -.38148E+01
   .33400E+02   .82338E+02  -.37385E+01
   .33800E+02   .82332E+02  -.36646E+01
   .34100E+02   .82328E+02  -.36107E+01
   .34500E+02   .82322E+02  -.35408E+01
   .34900E+02   .82315E+02  -.34730E+01
   .35300E+02   .82307E+02  -.34072E+01
   .35700E+02   .82300E+02  -.33435E+01
   .36030E+02   .82293E+02  -.32922E+01
   .36500E+02   .82283E+02  -.32214E+01
   .37000E+02   .82272E+02  -.31487E+01
   .37500E+02   .82260E+02  -.30786E+01
   .38000E+02   .82248E+02  -.30110E+01
   .38500E+02   .82236E+02  -.29454E+01
   .39000E+02   .82224E+02  -.28821E+01
   .39500E+02   .82211E+02  -.28209E+01
   .40000E+02   .82199E+02  -.27618E+01
   .40800E+02   .82178E+02  -.26704E+01
   .41500E+02   .82159E+02  -.25943E+01
   .42300E+02   .82137E+02  -.25115E+01
   .43000E+02   .82117E+02  -.24424E+01
   .43800E+02   .82094E+02  -.23669E+01
   .44500E+02   .82075E+02  -.23038E+01
   .45300E+02   .82052E+02  -.22348E+01
   .46000E+02   .82032E+02  -.21770E+01
   .46500E+02   .82017E+02  -.21371E+01
   .47000E+02   .82003E+02  -.20984E+01
   .47500E+02   .81988E+02  -.20608E+01
   .48000E+02   .81974E+02  -.20242E+01
   .48500E+02   .81959E+02  -.19887E+01
   .49000E+02   .81945E+02  -.19541E+01
   .50000E+02   .81916E+02  -.18878E+01
   .51000E+02   .81887E+02  -.18243E+01
   .52000E+02   .81858E+02  -.17642E+01
   .52800E+02   .81835E+02  -.17183E+01
   .53641E+02   .81810E+02  -.16721E+01
   .54200E+02   .81794E+02  -.16424E+01
   .54800E+02   .81776E+02  -.16114E+01
   .55400E+02   .81759E+02  -.15814E+01
   .56000E+02   .81741E+02  -.15522E+01
   .56800E+02   .81717E+02  -.15145E+01
   .57530E+02   .81696E+02  -.14814E+01
   .58000E+02   .81682E+02  -.14607E+01
   .58500E+02   .81667E+02  -.14392E+01
   .59540E+02   .81636E+02  -.13960E+01
   .59800E+02   .81629E+02  -.13855E+01
   .60000E+02   .81623E+02  -.13775E+01
   .60800E+02   .81599E+02  -.13461E+01
   .61500E+02   .81577E+02  -.13195E+01
   .62300E+02   .81553E+02  -.12902E+01
   .63000E+02   .81531E+02  -.12653E+01
   .64000E+02   .81500E+02  -.12311E+01
   .65000E+02   .81468E+02  -.11983E+01
   .65900E+02   .81439E+02  -.11698E+01
   .66830E+02   .81409E+02  -.11416E+01
   .67400E+02   .81390E+02  -.11248E+01
   .68000E+02   .81370E+02  -.11075E+01
   .69000E+02   .81335E+02  -.10796E+01
   .70000E+02   .81299E+02  -.10528E+01
   .71000E+02   .81263E+02  -.10270E+01
   .71500E+02   .81244E+02  -.10146E+01
   .72000E+02   .81225E+02  -.10022E+01
   .72800E+02   .81193E+02  -.98322E+00
   .73500E+02   .81165E+02  -.96664E+00
   .74200E+02   .81135E+02  -.95096E+00
   .74960E+02   .81103E+02  -.93393E+00
   .75500E+02   .81078E+02  -.92226E+00
   .76000E+02   .81055E+02  -.91167E+00
   .76600E+02   .81026E+02  -.89932E+00
   .77110E+02   .81001E+02  -.88882E+00
   .77900E+02   .80961E+02  -.87329E+00
   .78600E+02   .80922E+02  -.85953E+00
   .79300E+02   .80882E+02  -.84630E+00
   .79700E+02   .80858E+02  -.83891E+00
   .80000E+02   .80840E+02  -.83338E+00
   .80400E+02   .80814E+02  -.82622E+00
   .80800E+02   .80788E+02  -.81907E+00
   .81200E+02   .80760E+02  -.81192E+00
   .81500E+02   .80739E+02  -.80656E+00
   .81900E+02   .80710E+02  -.79976E+00
   .82300E+02   .80678E+02  -.79296E+00
   .82700E+02   .80646E+02  -.78617E+00
   .83000E+02   .80621E+02  -.78107E+00
   .83300E+02   .80594E+02  -.77618E+00
   .83500E+02   .80576E+02  -.77292E+00
   .83800E+02   .80548E+02  -.76803E+00
   .84000E+02   .80528E+02  -.76477E+00
   .84300E+02   .80498E+02  -.76004E+00
   .84500E+02   .80477E+02  -.75688E+00
   .84800E+02   .80444E+02  -.75215E+00
   .85000E+02   .80421E+02  -.74900E+00
   .85400E+02   .80372E+02  -.74294E+00
   .85600E+02   .80347E+02  -.73991E+00
   .85800E+02   .80320E+02  -.73688E+00
   .86000E+02   .80292E+02  -.73385E+00
   .86200E+02   .80263E+02  -.73082E+00
   .86350E+02   .80241E+02  -.72855E+00
   .86500E+02   .80217E+02  -.72628E+00
   .86700E+02   .80185E+02  -.72339E+00
   .86900E+02   .80150E+02  -.72050E+00
   .87100E+02   .80115E+02  -.71762E+00
   .87300E+02   .80076E+02  -.71473E+00
   .87500E+02   .80036E+02  -.71184E+00
   .87700E+02   .79993E+02  -.70895E+00
   .87850E+02   .79959E+02  -.70679E+00
   .88000E+02   .79923E+02  -.70462E+00
   .88150E+02   .79885E+02  -.70254E+00
   .88300E+02   .79844E+02  -.70046E+00
   .88400E+02   .79816E+02  -.69907E+00
   .88500E+02   .79787E+02  -.69768E+00
   .88650E+02   .79740E+02  -.69560E+00
   .88800E+02   .79690E+02  -.69352E+00
   .88900E+02   .79655E+02  -.69213E+00
   .89000E+02   .79617E+02  -.69074E+00
   .89080E+02   .79586E+02  -.68966E+00
   .89150E+02   .79557E+02  -.68872E+00
   .89230E+02   .79523E+02  -.68765E+00
   .89300E+02   .79491E+02  -.68670E+00
   .89400E+02   .79444E+02  -.68536E+00
   .89450E+02   .79419E+02  -.68468E+00
   .89500E+02   .79393E+02  -.68401E+00
   .89580E+02   .79349E+02  -.68293E+00
   .89650E+02   .79309E+02  -.68199E+00
   .89730E+02   .79259E+02  -.68092E+00
   .89800E+02   .79213E+02  -.67997E+00
   .89850E+02   .79178E+02  -.67930E+00
   .89900E+02   .79142E+02  -.67863E+00
   .89950E+02   .79103E+02  -.67796E+00
   .90000E+02   .79063E+02  -.67728E+00
   .90020E+02   .79046E+02  -.67702E+00
   .90050E+02   .79020E+02  -.67662E+00
   .90100E+02   .78974E+02  -.67596E+00
   .90150E+02   .78925E+02  -.67530E+00
   .90200E+02   .78872E+02  -.67463E+00
   .90250E+02   .78816E+02  -.67397E+00
   .90300E+02   .78754E+02  -.67331E+00
   .90350E+02   .78688E+02  -.67265E+00
   .90380E+02   .78645E+02  -.67225E+00
   .90400E+02   .78614E+02  -.67198E+00
   .90420E+02   .78583E+02  -.67172E+00
   .90450E+02   .78533E+02  -.67133E+00
   .90470E+02   .78498E+02  -.67107E+00
   .90500E+02   .78441E+02  -.67068E+00
   .90520E+02   .78401E+02  -.67042E+00
   .90550E+02   .78337E+02  -.67002E+00
   .90570E+02   .78291E+02  -.66976E+00
   .90600E+02   .78216E+02  -.66937E+00
   .90615E+02   .78176E+02  -.66918E+00
   .90630E+02   .78133E+02  -.66898E+00
   .90650E+02   .78072E+02  -.66872E+00
   .90670E+02   .78006E+02  -.66846E+00
   .90690E+02   .77933E+02  -.66820E+00
   .90710E+02   .77853E+02  -.66793E+00
   .90720E+02   .77809E+02  -.66780E+00
   .90730E+02   .77763E+02  -.66767E+00
   .90740E+02   .77714E+02  -.66754E+00
   .90750E+02   .77661E+02  -.66741E+00
   .90758E+02   .77616E+02  -.66731E+00
   .90765E+02   .77575E+02  -.66721E+00
   .90773E+02   .77524E+02  -.66711E+00
   .90780E+02   .77477E+02  -.66702E+00
   .90790E+02   .77405E+02  -.66689E+00
   .90800E+02   .77324E+02  -.66676E+00
   .90810E+02   .77235E+02  -.66663E+00
   .90815E+02   .77186E+02  -.66656E+00
   .90820E+02   .77133E+02  -.66650E+00
   .90825E+02   .77077E+02  -.66643E+00
   .90830E+02   .77016E+02  -.66637E+00
   .90835E+02   .76950E+02  -.66630E+00
   .90840E+02   .76878E+02  -.66624E+00
   .90845E+02   .76799E+02  -.66617E+00
   .90850E+02   .76710E+02  -.66610E+00
   .90855E+02   .76609E+02  -.66604E+00
   .90860E+02   .76494E+02  -.66597E+00
   .90863E+02   .76415E+02  -.66593E+00
   .90865E+02   .76358E+02  -.66591E+00
   .90868E+02   .76263E+02  -.66587E+00
   .90870E+02   .76193E+02  -.66584E+00
   .90873E+02   .76074E+02  -.66580E+00
   .90875E+02   .75982E+02  -.66578E+00
   .90878E+02   .75822E+02  -.66574E+00
   .90880E+02   .75695E+02  -.66571E+00
   .90882E+02   .75583E+02  -.66569E+00
   .90883E+02   .75453E+02  -.66567E+00
   .90885E+02   .75240E+02  -.66565E+00
   .90887E+02   .74956E+02  -.66562E+00
   .90888E+02   .74662E+02  -.66560E+00
   .90890E+02   .74239E+02  -.66558E+00
   .90891E+02   .73822E+02  -.66557E+00
   .90892E+02   .73184E+02  -.66556E+00
   .90893E+02   .72471E+02  -.66555E+00
   .90893E+02   .71256E+02  -.66554E+00
   .90894E+02   .71450E+02  -.13861E+01
   .90894E+02   .71880E+02  -.28273E+01
   .90894E+02   .72311E+02  -.42685E+01
   .90894E+02   .73169E+02  -.71508E+01
   .90895E+02   .75084E+02  -.13636E+02
   .90897E+02   .78823E+02  -.66549E+00
   .90898E+02   .77074E+02  -.66548E+00
   .90899E+02   .75861E+02  -.66546E+00
   .90900E+02   .75732E+02  -.66545E+00
   .90901E+02   .75726E+02  -.40000E+01
   .90902E+02   .75729E+02  -.94216E+00
   .90903E+02   .75754E+02  -.13206E+01
   .90904E+02   .75252E+02  -.20373E+01
   .90905E+02   .75225E+02  -.29969E+01
   .90906E+02   .75423E+02  -.30013E+01
   .90907E+02   .75747E+02  -.30058E+01
   .90908E+02   .75842E+02  -.30103E+01
   .90909E+02   .75916E+02  -.30147E+01
   .90910E+02   .75975E+02  -.30192E+01
   .90911E+02   .76026E+02  -.30237E+01
   .90912E+02   .76090E+02  -.30330E+01
   .90914E+02   .76147E+02  -.30423E+01
   .90915E+02   .76183E+02  -.30494E+01
   .90916E+02   .76218E+02  -.30565E+01
   .90917E+02   .76250E+02  -.30636E+01
   .90918E+02   .76282E+02  -.30707E+01
   .90919E+02   .76313E+02  -.30778E+01
   .90920E+02   .76343E+02  -.30849E+01
   .90922E+02   .76388E+02  -.30928E+01
   .90923E+02   .76430E+02  -.31008E+01
   .90925E+02   .76486E+02  -.31113E+01
   .90928E+02   .76564E+02  -.31200E+01
   .90930E+02   .76614E+02  -.31258E+01
   .90933E+02   .76684E+02  -.31282E+01
   .90935E+02   .76728E+02  -.31298E+01
   .90938E+02   .76789E+02  -.31280E+01
   .90940E+02   .76827E+02  -.31267E+01
   .90943E+02   .76880E+02  -.31227E+01
   .90945E+02   .76913E+02  -.31200E+01
   .90948E+02   .76959E+02  -.31155E+01
   .90950E+02   .76987E+02  -.31124E+01
   .90953E+02   .77026E+02  -.31085E+01
   .90955E+02   .77051E+02  -.31059E+01
   .90960E+02   .77108E+02  -.31014E+01
   .90965E+02   .77159E+02  -.30991E+01
   .90970E+02   .77207E+02  -.30989E+01
   .90975E+02   .77253E+02  -.31008E+01
   .90980E+02   .77296E+02  -.31026E+01
   .90987E+02   .77355E+02  -.31065E+01
   .90995E+02   .77420E+02  -.31103E+01
   .91002E+02   .77474E+02  -.31114E+01
   .91010E+02   .77531E+02  -.31127E+01
   .91020E+02   .77598E+02  -.31108E+01
   .91030E+02   .77658E+02  -.31088E+01
   .91040E+02   .77713E+02  -.31070E+01
   .91050E+02   .77764E+02  -.31052E+01
   .91060E+02   .77811E+02  -.31056E+01
   .91070E+02   .77855E+02  -.31060E+01
   .91090E+02   .77940E+02  -.31068E+01
   .91110E+02   .78017E+02  -.31064E+01
   .91130E+02   .78088E+02  -.31061E+01
   .91150E+02   .78152E+02  -.31051E+01
   .91170E+02   .78211E+02  -.31041E+01
   .91185E+02   .78252E+02  -.31033E+01
   .91200E+02   .78292E+02  -.31026E+01
   .91220E+02   .78343E+02  -.31015E+01
   .91240E+02   .78390E+02  -.31004E+01
   .91260E+02   .78435E+02  -.30993E+01
   .91280E+02   .78477E+02  -.30982E+01
   .91310E+02   .78537E+02  -.30965E+01
   .91350E+02   .78610E+02  -.30943E+01
   .91380E+02   .78660E+02  -.30932E+01
   .91420E+02   .78723E+02  -.30918E+01
   .91460E+02   .78783E+02  -.30904E+01
   .91500E+02   .78838E+02  -.30889E+01
   .91540E+02   .78890E+02  -.30864E+01
   .91580E+02   .78939E+02  -.30838E+01
   .91610E+02   .78974E+02  -.30819E+01
   .91650E+02   .79018E+02  -.30793E+01
   .91690E+02   .79060E+02  -.30768E+01
   .91730E+02   .79099E+02  -.30742E+01
   .91760E+02   .79128E+02  -.30723E+01
   .91800E+02   .79164E+02  -.30697E+01
   .91850E+02   .79207E+02  -.30671E+01
   .91900E+02   .79248E+02  -.30645E+01
   .91950E+02   .79287E+02  -.30619E+01
   .92000E+02   .79324E+02  -.30593E+01
   .92080E+02   .79380E+02  -.30564E+01
   .92150E+02   .79426E+02  -.30538E+01
   .92230E+02   .79477E+02  -.30508E+01
   .92300E+02   .79520E+02  -.30483E+01
   .92350E+02   .79549E+02  -.30457E+01
   .92400E+02   .79578E+02  -.30432E+01
   .92500E+02   .79632E+02  -.30381E+01
   .92580E+02   .79673E+02  -.30334E+01
   .92650E+02   .79707E+02  -.30292E+01
   .92730E+02   .79744E+02  -.30245E+01
   .92800E+02   .79775E+02  -.30203E+01
   .92900E+02   .79817E+02  -.30144E+01
   .93000E+02   .79856E+02  -.30084E+01
   .93150E+02   .79912E+02  -.30011E+01
   .93300E+02   .79965E+02  -.29937E+01
   .93400E+02   .79999E+02  -.29888E+01
   .93500E+02   .80031E+02  -.29839E+01
   .93650E+02   .80077E+02  -.29774E+01
   .93800E+02   .80121E+02  -.29709E+01
   .93900E+02   .80149E+02  -.29666E+01
   .94000E+02   .80176E+02  -.29623E+01
   .94150E+02   .80216E+02  -.29559E+01
   .94300E+02   .80255E+02  -.29496E+01
   .94500E+02   .80304E+02  -.29411E+01
   .94800E+02   .80373E+02  -.29265E+01
   .94900E+02   .80395E+02  -.29216E+01
   .95000E+02   .80416E+02  -.29167E+01
   .95200E+02   .80457E+02  -.29061E+01
   .95400E+02   .80496E+02  -.28955E+01
   .95600E+02   .80533E+02  -.28849E+01
   .95800E+02   .80567E+02  -.28743E+01
   .96000E+02   .80601E+02  -.28644E+01
   .96200E+02   .80633E+02  -.28544E+01
   .96350E+02   .80656E+02  -.28470E+01
   .96500E+02   .80678E+02  -.28396E+01
   .96700E+02   .80707E+02  -.28302E+01
   .96900E+02   .80734E+02  -.28209E+01
   .97100E+02   .80761E+02  -.28116E+01
   .97300E+02   .80787E+02  -.28022E+01
   .97500E+02   .80812E+02  -.27937E+01
   .97700E+02   .80836E+02  -.27851E+01
   .98000E+02   .80871E+02  -.27723E+01
   .98300E+02   .80905E+02  -.27599E+01
   .98500E+02   .80927E+02  -.27516E+01
   .98800E+02   .80959E+02  -.27391E+01
   .99000E+02   .80979E+02  -.27308E+01
   .99300E+02   .81009E+02  -.27189E+01
   .99500E+02   .81029E+02  -.27109E+01
   .99800E+02   .81058E+02  -.26990E+01
   .99900E+02   .81067E+02  -.26950E+01
   .10000E+03   .81076E+02  -.26910E+01
   .10040E+03   .81112E+02  -.26745E+01
   .10080E+03   .81146E+02  -.26581E+01
   .10120E+03   .81179E+02  -.26416E+01
   .10150E+03   .81202E+02  -.26292E+01
   .10190E+03   .81232E+02  -.26128E+01
   .10230E+03   .81261E+02  -.25963E+01
   .10270E+03   .81288E+02  -.25798E+01
   .10300E+03   .81308E+02  -.25674E+01
   .10330E+03   .81327E+02  -.25557E+01
   .10350E+03   .81340E+02  -.25479E+01
   .10400E+03   .81371E+02  -.25283E+01
   .10450E+03   .81400E+02  -.25087E+01
   .10480E+03   .81417E+02  -.24969E+01
   .10500E+03   .81428E+02  -.24891E+01
   .10540E+03   .81449E+02  -.24739E+01
   .10580E+03   .81470E+02  -.24588E+01
   .10620E+03   .81489E+02  -.24436E+01
   .10650E+03   .81504E+02  -.24322E+01
   .10690E+03   .81522E+02  -.24176E+01
   .10730E+03   .81540E+02  -.24029E+01
   .10770E+03   .81558E+02  -.23883E+01
   .10800E+03   .81570E+02  -.23773E+01
   .10850E+03   .81590E+02  -.23599E+01
   .10900E+03   .81610E+02  -.23424E+01
   .10950E+03   .81629E+02  -.23254E+01
   .11000E+03   .81647E+02  -.23084E+01
   .11040E+03   .81661E+02  -.22952E+01
   .11080E+03   .81675E+02  -.22820E+01
   .11120E+03   .81688E+02  -.22687E+01
   .11150E+03   .81698E+02  -.22588E+01
   .11190E+03   .81711E+02  -.22461E+01
   .11230E+03   .81723E+02  -.22333E+01
   .11270E+03   .81735E+02  -.22206E+01
   .11300E+03   .81744E+02  -.22110E+01
   .11350E+03   .81758E+02  -.21955E+01
   .11400E+03   .81772E+02  -.21800E+01
   .11450E+03   .81786E+02  -.21648E+01
   .11500E+03   .81799E+02  -.21497E+01
   .11580E+03   .81818E+02  -.21263E+01
   .11650E+03   .81835E+02  -.21059E+01
   .11730E+03   .81853E+02  -.20834E+01
   .11800E+03   .81868E+02  -.20636E+01
   .11850E+03   .81879E+02  -.20499E+01
   .11900E+03   .81889E+02  -.20362E+01
   .11950E+03   .81899E+02  -.20228E+01
   .12000E+03   .81909E+02  -.20093E+01
   .12050E+03   .81918E+02  -.19963E+01
   .12100E+03   .81927E+02  -.19833E+01
   .12150E+03   .81936E+02  -.19703E+01
   .12200E+03   .81945E+02  -.19573E+01
   .12250E+03   .81953E+02  -.19447E+01
   .12300E+03   .81962E+02  -.19322E+01
   .12350E+03   .81970E+02  -.19196E+01
   .12400E+03   .81978E+02  -.19070E+01
   .12440E+03   .81984E+02  -.18972E+01
   .12480E+03   .81990E+02  -.18874E+01
   .12550E+03   .82000E+02  -.18703E+01
   .12630E+03   .82011E+02  -.18513E+01
   .12700E+03   .82021E+02  -.18347E+01
   .12780E+03   .82031E+02  -.18163E+01
   .12850E+03   .82039E+02  -.18002E+01
   .12930E+03   .82049E+02  -.17823E+01
   .13000E+03   .82057E+02  -.17667E+01
   .13080E+03   .82066E+02  -.17490E+01
   .13150E+03   .82073E+02  -.17335E+01
   .13230E+03   .82081E+02  -.17164E+01
   .13300E+03   .82088E+02  -.17014E+01
   .13380E+03   .82095E+02  -.16847E+01
   .13450E+03   .82101E+02  -.16702E+01
   .13530E+03   .82108E+02  -.16540E+01
   .13600E+03   .82114E+02  -.16398E+01
   .13680E+03   .82120E+02  -.16241E+01
   .13750E+03   .82125E+02  -.16104E+01
   .13830E+03   .82131E+02  -.15951E+01
   .13900E+03   .82135E+02  -.15817E+01
   .13980E+03   .82140E+02  -.15669E+01
   .14050E+03   .82145E+02  -.15540E+01
   .14200E+03   .82153E+02  -.15273E+01
   .14400E+03   .82164E+02  -.14929E+01
   .14540E+03   .82171E+02  -.14695E+01
   .14600E+03   .82174E+02  -.14596E+01
   .14670E+03   .82177E+02  -.14483E+01
   .14800E+03   .82182E+02  -.14276E+01
   .14900E+03   .82187E+02  -.14120E+01
   .14950E+03   .82188E+02  -.14043E+01
   .15000E+03   .82190E+02  -.13966E+01
   .15200E+03   .82198E+02  -.13666E+01
   .15400E+03   .82204E+02  -.13376E+01
   .15600E+03   .82209E+02  -.13096E+01
   .15800E+03   .82214E+02  -.12825E+01
   .16000E+03   .82219E+02  -.12563E+01
   .16200E+03   .82223E+02  -.12310E+01
   .16350E+03   .82225E+02  -.12127E+01
   .16500E+03   .82228E+02  -.11945E+01
   .16700E+03   .82230E+02  -.11711E+01
   .16900E+03   .82233E+02  -.11485E+01
   .17100E+03   .82235E+02  -.11265E+01
   .17300E+03   .82237E+02  -.11052E+01
   .17500E+03   .82238E+02  -.10846E+01
   .17700E+03   .82239E+02  -.10645E+01
   .18000E+03   .82240E+02  -.10356E+01
   .18300E+03   .82241E+02  -.10080E+01
   .18500E+03   .82241E+02  -.99031E+00
   .18800E+03   .82241E+02  -.96466E+00
   .19000E+03   .82241E+02  -.94816E+00
   .19300E+03   .82240E+02  -.92430E+00
   .19500E+03   .82240E+02  -.90893E+00
   .19800E+03   .82239E+02  -.88664E+00
   .20000E+03   .82238E+02  -.87226E+00
