    E(keV)         f1           f2     
   .10000E+01   .47562E+02  -.46998E+02
   .10020E+01   .47744E+02  -.47095E+02
   .10050E+01   .48044E+02  -.47176E+02
   .10070E+01   .48240E+02  -.47201E+02
   .10100E+01   .48549E+02  -.47200E+02
   .10150E+01   .49025E+02  -.47160E+02
   .10200E+01   .49471E+02  -.47083E+02
   .10250E+01   .49908E+02  -.46992E+02
   .10300E+01   .50334E+02  -.46901E+02
   .10360E+01   .50829E+02  -.46749E+02
   .10410E+01   .51228E+02  -.46622E+02
   .10500E+01   .51904E+02  -.46356E+02
   .10600E+01   .52602E+02  -.46061E+02
   .10700E+01   .53252E+02  -.45763E+02
   .10800E+01   .53868E+02  -.45464E+02
   .10900E+01   .54459E+02  -.45163E+02
   .11000E+01   .55026E+02  -.44862E+02
   .11120E+01   .55669E+02  -.44501E+02
   .11245E+01   .56295E+02  -.44124E+02
   .11400E+01   .57022E+02  -.43668E+02
   .11600E+01   .57883E+02  -.43079E+02
   .11750E+01   .58472E+02  -.42637E+02
   .11900E+01   .58995E+02  -.42196E+02
   .12050E+01   .59454E+02  -.41754E+02
   .12130E+01   .59670E+02  -.41518E+02
   .12200E+01   .59834E+02  -.41312E+02
   .12300E+01   .60017E+02  -.41018E+02
   .12400E+01   .60117E+02  -.40723E+02
   .12470E+01   .60099E+02  -.40517E+02
   .12540E+01   .59933E+02  -.40311E+02
   .12550E+01   .59888E+02  -.40283E+02
   .12560E+01   .59836E+02  -.40254E+02
   .12580E+01   .59700E+02  -.40197E+02
   .12600E+01   .59505E+02  -.40140E+02
   .12622E+01   .58533E+02  -.40076E+02
   .12623E+01   .59168E+02  -.42376E+02
   .12623E+01   .59803E+02  -.40074E+02
   .12632E+01   .58959E+02  -.40049E+02
   .12641E+01   .55511E+02  -.40025E+02
   .12641E+01   .58836E+02  -.51978E+02
   .12641E+01   .62161E+02  -.40023E+02
   .12655E+01   .58413E+02  -.39984E+02
   .12669E+01   .57520E+02  -.39944E+02
   .12676E+01   .56837E+02  -.39925E+02
   .12683E+01   .55677E+02  -.39905E+02
   .12690E+01   .53253E+02  -.39886E+02
   .12697E+01   .10555E+02  -.39865E+02
   .12698E+01   .48168E+02  -.17619E+03
   .12698E+01   .85716E+02  -.39863E+02
   .12700E+01   .42580E+02  -.39857E+02
   .12703E+01  -.11809E+03  -.39850E+02
   .12703E+01   .59669E+02  -.67496E+03
   .12703E+01   .23744E+03  -.39848E+02
   .12706E+01   .73950E+02  -.39840E+02
   .12709E+01   .51340E+02  -.39831E+02
   .12710E+01   .66041E+02  -.93956E+02
   .12710E+01   .80771E+02  -.39830E+02
   .12713E+01   .62920E+02  -.39821E+02
   .12716E+01   .51208E+02  -.39812E+02
   .12717E+01   .49955E+02  -.50540E+02
   .12717E+01   .40783E+02  -.39810E+02
   .12717E+01   .62822E+02  -.12486E+03
   .12718E+01   .85842E+02  -.39809E+02
   .12718E+01   .67620E+02  -.39806E+02
   .12719E+01   .59663E+02  -.39804E+02
   .12719E+01   .64239E+02  -.59220E+02
   .12720E+01   .68940E+02  -.39803E+02
   .12721E+01   .61784E+02  -.39799E+02
   .12722E+01   .50449E+02  -.39796E+02
   .12722E+01   .62261E+02  -.77143E+02
   .12723E+01   .70777E+02  -.39795E+02
   .12723E+01   .65774E+02  -.39794E+02
   .12723E+01   .62769E+02  -.39793E+02
   .12723E+01   .63584E+02  -.48986E+02
   .12724E+01   .64877E+02  -.39792E+02
   .12724E+01   .61711E+02  -.39791E+02
   .12724E+01   .58576E+02  -.39789E+02
   .12725E+01   .56329E+02  -.39789E+02
   .12725E+01   .58946E+02  -.39788E+02
   .12725E+01   .61577E+02  -.61544E+02
   .12725E+01   .64052E+02  -.39788E+02
   .12725E+01   .67559E+02  -.39787E+02
   .12726E+01   .62175E+02  -.39786E+02
   .12726E+01   .58894E+02  -.39785E+02
   .12726E+01   .60751E+02  -.50715E+02
   .12726E+01   .61358E+02  -.39784E+02
   .12727E+01   .62440E+02  -.39784E+02
   .12727E+01   .62684E+02  -.39784E+02
   .12727E+01   .61890E+02  -.43687E+02
   .12727E+01   .59955E+02  -.39783E+02
   .12727E+01   .58180E+02  -.39782E+02
   .12727E+01   .58237E+02  -.40216E+02
   .12727E+01   .59025E+02  -.53760E+02
   .12728E+01   .61219E+02  -.41726E+02
   .12728E+01   .61981E+02  -.42461E+02
   .12728E+01   .60738E+02  -.43114E+02
   .12728E+01   .59640E+02  -.43167E+02
   .12728E+01   .61737E+02  -.51272E+02
   .12728E+01   .62959E+02  -.43148E+02
   .12729E+01   .61915E+02  -.43147E+02
   .12729E+01   .63175E+02  -.50497E+02
   .12729E+01   .64265E+02  -.43126E+02
   .12729E+01   .63472E+02  -.43125E+02
   .12729E+01   .64149E+02  -.48436E+02
   .12730E+01   .65122E+02  -.43105E+02
   .12730E+01   .63678E+02  -.43085E+02
   .12731E+01   .63192E+02  -.43064E+02
   .12731E+01   .62940E+02  -.43044E+02
   .12732E+01   .62779E+02  -.43024E+02
   .12733E+01   .62646E+02  -.43001E+02
   .12734E+01   .62536E+02  -.42974E+02
   .12734E+01   .62458E+02  -.42950E+02
   .12735E+01   .62388E+02  -.42923E+02
   .12736E+01   .62319E+02  -.42896E+02
   .12737E+01   .62264E+02  -.42870E+02
   .12738E+01   .62197E+02  -.42830E+02
   .12740E+01   .62141E+02  -.42790E+02
   .12742E+01   .62079E+02  -.42750E+02
   .12745E+01   .62016E+02  -.42692E+02
   .12748E+01   .61969E+02  -.42633E+02
   .12750E+01   .61938E+02  -.42594E+02
   .12755E+01   .61884E+02  -.42523E+02
   .12760E+01   .61849E+02  -.42453E+02
   .12765E+01   .61823E+02  -.42401E+02
   .12770E+01   .61805E+02  -.42348E+02
   .12780E+01   .61790E+02  -.42268E+02
   .12790E+01   .61796E+02  -.42197E+02
   .12800E+01   .61813E+02  -.42145E+02
   .12810E+01   .61839E+02  -.42093E+02
   .12830E+01   .61907E+02  -.42014E+02
   .12850E+01   .61993E+02  -.41950E+02
   .12880E+01   .62139E+02  -.41863E+02
   .12900E+01   .62244E+02  -.41804E+02
   .12915E+01   .62323E+02  -.41761E+02
   .12930E+01   .62404E+02  -.41718E+02
   .12935E+01   .62431E+02  -.41703E+02
   .12940E+01   .62458E+02  -.41689E+02
   .12942E+01   .62468E+02  -.41683E+02
   .12945E+01   .62484E+02  -.41674E+02
   .12946E+01   .62492E+02  -.41670E+02
   .12948E+01   .62500E+02  -.41666E+02
   .12948E+01   .62503E+02  -.41664E+02
   .12949E+01   .62505E+02  -.41663E+02
   .12949E+01   .62506E+02  -.41662E+02
   .12950E+01   .62508E+02  -.41661E+02
   .12950E+01   .62509E+02  -.41661E+02
   .12950E+01   .62510E+02  -.41661E+02
   .12950E+01   .62510E+02  -.41660E+02
   .12950E+01   .62583E+02  -.41660E+02
   .12950E+01   .62512E+02  -.41659E+02
   .12951E+01   .62513E+02  -.41659E+02
   .12951E+01   .62514E+02  -.41658E+02
   .12951E+01   .62516E+02  -.41657E+02
   .12952E+01   .62519E+02  -.41656E+02
   .12952E+01   .62521E+02  -.41654E+02
   .12953E+01   .62527E+02  -.41651E+02
   .12954E+01   .62532E+02  -.41649E+02
   .12956E+01   .62542E+02  -.41643E+02
   .12958E+01   .62553E+02  -.41637E+02
   .12965E+01   .62590E+02  -.41617E+02
   .12980E+01   .62668E+02  -.41574E+02
   .13000E+01   .62772E+02  -.41516E+02
   .13050E+01   .63023E+02  -.41363E+02
   .13100E+01   .63258E+02  -.41210E+02
   .13150E+01   .63479E+02  -.41067E+02
   .13200E+01   .63691E+02  -.40924E+02
   .13300E+01   .64101E+02  -.40638E+02
   .13400E+01   .64491E+02  -.40364E+02
   .13500E+01   .64861E+02  -.40089E+02
   .13600E+01   .65217E+02  -.39821E+02
   .13700E+01   .65559E+02  -.39553E+02
   .13800E+01   .65884E+02  -.39285E+02
   .13900E+01   .66199E+02  -.39017E+02
   .14100E+01   .66790E+02  -.38499E+02
   .14368E+01   .67515E+02  -.37806E+02
   .14500E+01   .67853E+02  -.37477E+02
   .14700E+01   .68332E+02  -.36980E+02
   .14850E+01   .68672E+02  -.36622E+02
   .15000E+01   .69001E+02  -.36264E+02
   .15200E+01   .69413E+02  -.35792E+02
   .15350E+01   .69703E+02  -.35437E+02
   .15500E+01   .69969E+02  -.35083E+02
   .15650E+01   .70213E+02  -.34741E+02
   .15800E+01   .70418E+02  -.34400E+02
   .15900E+01   .70515E+02  -.34172E+02
   .16006E+01   .69548E+02  -.33931E+02
   .16006E+01   .70515E+02  -.37273E+02
   .16006E+01   .71481E+02  -.33930E+02
   .16020E+01   .70510E+02  -.33899E+02
   .16043E+01   .70387E+02  -.33848E+02
   .16060E+01   .70168E+02  -.33811E+02
   .16080E+01   .48488E+02  -.33766E+02
   .16081E+01   .70383E+02  -.10982E+03
   .16081E+01   .92277E+02  -.33765E+02
   .16087E+01   .71548E+02  -.33752E+02
   .16093E+01   .67535E+02  -.33740E+02
   .16093E+01   .70941E+02  -.45672E+02
   .16093E+01   .74347E+02  -.33738E+02
   .16096E+01   .70954E+02  -.33731E+02
   .16099E+01   .68953E+02  -.33724E+02
   .16100E+01   .70631E+02  -.39737E+02
   .16100E+01   .72305E+02  -.33723E+02
   .16101E+01   .70803E+02  -.33721E+02
   .16102E+01   .69559E+02  -.33719E+02
   .16102E+01   .70696E+02  -.38000E+02
   .16103E+01   .71823E+02  -.33717E+02
   .16103E+01   .71209E+02  -.33717E+02
   .16103E+01   .70791E+02  -.33780E+02
   .16104E+01   .70603E+02  -.33908E+02
   .16104E+01   .70504E+02  -.34101E+02
   .16104E+01   .70480E+02  -.34165E+02
   .16104E+01   .70438E+02  -.34164E+02
   .16105E+01   .70273E+02  -.34164E+02
   .16105E+01   .69965E+02  -.34163E+02
   .16105E+01   .70184E+02  -.34964E+02
   .16105E+01   .70608E+02  -.36566E+02
   .16106E+01   .71223E+02  -.34161E+02
   .16106E+01   .70811E+02  -.34161E+02
   .16106E+01   .70415E+02  -.34160E+02
   .16106E+01   .70894E+02  -.36187E+02
   .16107E+01   .71389E+02  -.34159E+02
   .16107E+01   .70969E+02  -.34158E+02
   .16107E+01   .70607E+02  -.34157E+02
   .16108E+01   .70832E+02  -.35382E+02
   .16108E+01   .70990E+02  -.34155E+02
   .16108E+01   .70911E+02  -.34155E+02
   .16108E+01   .71019E+02  -.35275E+02
   .16109E+01   .71182E+02  -.34154E+02
   .16109E+01   .70960E+02  -.34153E+02
   .16109E+01   .70745E+02  -.34153E+02
   .16109E+01   .71017E+02  -.35549E+02
   .16110E+01   .71273E+02  -.34151E+02
   .16110E+01   .71159E+02  -.34151E+02
   .16110E+01   .71042E+02  -.34151E+02
   .16110E+01   .71106E+02  -.35050E+02
   .16111E+01   .71163E+02  -.34150E+02
   .16111E+01   .71061E+02  -.34150E+02
   .16111E+01   .71184E+02  -.35201E+02
   .16111E+01   .71332E+02  -.34148E+02
   .16111E+01   .71261E+02  -.34148E+02
   .16112E+01   .71358E+02  -.35121E+02
   .16112E+01   .71572E+02  -.34146E+02
   .16121E+01   .71009E+02  -.34126E+02
   .16130E+01   .70980E+02  -.34106E+02
   .16140E+01   .70981E+02  -.34084E+02
   .16150E+01   .70994E+02  -.34061E+02
   .16170E+01   .71031E+02  -.34016E+02
   .16190E+01   .71073E+02  -.33972E+02
   .16230E+01   .71160E+02  -.33882E+02
   .16260E+01   .71223E+02  -.33815E+02
   .16330E+01   .71364E+02  -.33658E+02
   .16400E+01   .71497E+02  -.33501E+02
   .16500E+01   .71673E+02  -.33277E+02
   .16600E+01   .71838E+02  -.33053E+02
   .16800E+01   .72139E+02  -.32629E+02
   .17008E+01   .72416E+02  -.32188E+02
   .17300E+01   .72753E+02  -.31610E+02
   .17400E+01   .72853E+02  -.31412E+02
   .17500E+01   .72941E+02  -.31214E+02
   .17600E+01   .73014E+02  -.31026E+02
   .17700E+01   .73060E+02  -.30839E+02
   .17750E+01   .73064E+02  -.30745E+02
   .17800E+01   .73042E+02  -.30651E+02
   .17830E+01   .73002E+02  -.30594E+02
   .17850E+01   .72950E+02  -.30557E+02
   .17865E+01   .72883E+02  -.30529E+02
   .17880E+01   .72757E+02  -.30501E+02
   .17892E+01   .72515E+02  -.30478E+02
   .17904E+01   .69191E+02  -.30455E+02
   .17905E+01   .68243E+02  -.31286E+02
   .17905E+01   .65946E+02  -.30454E+02
   .17905E+01   .64735E+02  -.30453E+02
   .17905E+01   .60620E+02  -.30453E+02
   .17906E+01   .72703E+02  -.71936E+02
   .17906E+01   .84810E+02  -.30451E+02
   .17908E+01   .74662E+02  -.30448E+02
   .17910E+01   .71976E+02  -.30445E+02
   .17910E+01   .73961E+02  -.36518E+02
   .17911E+01   .75460E+02  -.30443E+02
   .17914E+01   .73390E+02  -.30437E+02
   .17917E+01   .73035E+02  -.30433E+02
   .17920E+01   .72490E+02  -.30426E+02
   .17922E+01   .69307E+02  -.30422E+02
   .17923E+01   .72655E+02  -.42077E+02
   .17923E+01   .75970E+02  -.30420E+02
   .17924E+01   .74374E+02  -.30420E+02
   .17924E+01   .73497E+02  -.30419E+02
   .17924E+01   .73679E+02  -.32386E+02
   .17925E+01   .73954E+02  -.30418E+02
   .17925E+01   .73481E+02  -.30417E+02
   .17925E+01   .73173E+02  -.30416E+02
   .17926E+01   .72938E+02  -.30415E+02
   .17926E+01   .72847E+02  -.30415E+02
   .17926E+01   .72703E+02  -.30414E+02
   .17927E+01   .72578E+02  -.30414E+02
   .17927E+01   .72351E+02  -.30413E+02
   .17927E+01   .72216E+02  -.30552E+02
   .17928E+01   .72043E+02  -.30761E+02
   .17928E+01   .71995E+02  -.30901E+02
   .17928E+01   .71869E+02  -.30972E+02
   .17928E+01   .71659E+02  -.30971E+02
   .17928E+01   .71203E+02  -.30971E+02
   .17929E+01   .71364E+02  -.30971E+02
   .17929E+01   .71776E+02  -.30971E+02
   .17929E+01   .72588E+02  -.35905E+02
   .17929E+01   .73354E+02  -.30970E+02
   .17929E+01   .73813E+02  -.30970E+02
   .17929E+01   .74052E+02  -.30969E+02
   .17929E+01   .73715E+02  -.31851E+02
   .17930E+01   .73544E+02  -.30968E+02
   .17931E+01   .73020E+02  -.30967E+02
   .17931E+01   .72244E+02  -.30965E+02
   .17932E+01   .72960E+02  -.33953E+02
   .17932E+01   .73895E+02  -.30964E+02
   .17932E+01   .73292E+02  -.30963E+02
   .17933E+01   .72858E+02  -.30963E+02
   .17933E+01   .73198E+02  -.32712E+02
   .17933E+01   .73635E+02  -.30961E+02
   .17934E+01   .73329E+02  -.30961E+02
   .17934E+01   .72910E+02  -.30960E+02
   .17934E+01   .73397E+02  -.32822E+02
   .17935E+01   .73756E+02  -.30959E+02
   .17935E+01   .73478E+02  -.30959E+02
   .17935E+01   .73317E+02  -.30958E+02
   .17935E+01   .73550E+02  -.32315E+02
   .17936E+01   .73772E+02  -.30957E+02
   .17936E+01   .73704E+02  -.31472E+02
   .17937E+01   .73756E+02  -.30955E+02
   .17943E+01   .73312E+02  -.30944E+02
   .17950E+01   .73279E+02  -.30931E+02
   .17960E+01   .73283E+02  -.30912E+02
   .17970E+01   .73301E+02  -.30894E+02
   .17985E+01   .73335E+02  -.30866E+02
   .18000E+01   .73370E+02  -.30838E+02
   .18040E+01   .73461E+02  -.30764E+02
   .18070E+01   .73523E+02  -.30709E+02
   .18130E+01   .73637E+02  -.30598E+02
   .18200E+01   .73756E+02  -.30469E+02
   .18270E+01   .73866E+02  -.30340E+02
   .18350E+01   .73982E+02  -.30192E+02
   .18500E+01   .74183E+02  -.29915E+02
   .18600E+01   .74306E+02  -.29741E+02
   .18700E+01   .74424E+02  -.29567E+02
   .19000E+01   .74750E+02  -.29046E+02
   .19200E+01   .74948E+02  -.28718E+02
   .19500E+01   .75227E+02  -.28226E+02
   .19700E+01   .75401E+02  -.27907E+02
   .19850E+01   .75525E+02  -.27673E+02
   .20000E+01   .75646E+02  -.27440E+02
   .20300E+01   .75871E+02  -.26976E+02
   .20700E+01   .76138E+02  -.26382E+02
   .21100E+01   .76377E+02  -.25811E+02
   .21500E+01   .76595E+02  -.25263E+02
   .21800E+01   .76745E+02  -.24857E+02
   .22200E+01   .76921E+02  -.24334E+02
   .22600E+01   .77077E+02  -.23831E+02
   .23000E+01   .77218E+02  -.23348E+02
   .23500E+01   .77370E+02  -.22755E+02
   .24000E+01   .77494E+02  -.22190E+02
   .24500E+01   .77594E+02  -.21644E+02
   .25000E+01   .77672E+02  -.21122E+02
   .25300E+01   .77708E+02  -.20817E+02
   .25600E+01   .77736E+02  -.20521E+02
   .26210E+01   .77774E+02  -.19941E+02
   .26220E+01   .77774E+02  -.19932E+02
   .26230E+01   .77775E+02  -.19923E+02
   .30000E+01   .77477E+02  -.16872E+02
   .30080E+01   .77461E+02  -.16814E+02
   .30150E+01   .77447E+02  -.16765E+02
   .30900E+01   .77272E+02  -.16248E+02
   .31600E+01   .77075E+02  -.15791E+02
   .32300E+01   .76842E+02  -.15353E+02
   .33000E+01   .76573E+02  -.14936E+02
   .33500E+01   .76357E+02  -.14648E+02
   .34000E+01   .76118E+02  -.14369E+02
   .34500E+01   .75855E+02  -.14100E+02
   .35000E+01   .75567E+02  -.13840E+02
   .35300E+01   .75380E+02  -.13688E+02
   .35700E+01   .75113E+02  -.13485E+02
   .36100E+01   .74823E+02  -.13292E+02
   .36500E+01   .74508E+02  -.13099E+02
   .36800E+01   .74255E+02  -.12961E+02
   .37200E+01   .73889E+02  -.12777E+02
   .37600E+01   .73489E+02  -.12602E+02
   .38000E+01   .73047E+02  -.12426E+02
   .38200E+01   .72811E+02  -.12341E+02
   .38500E+01   .72428E+02  -.12213E+02
   .38700E+01   .72155E+02  -.12130E+02
   .39000E+01   .71712E+02  -.12006E+02
   .39200E+01   .71393E+02  -.11925E+02
   .39500E+01   .70870E+02  -.11805E+02
   .39700E+01   .70489E+02  -.11727E+02
   .40000E+01   .69857E+02  -.11610E+02
   .40050E+01   .69743E+02  -.11590E+02
   .40100E+01   .69627E+02  -.11571E+02
   .40200E+01   .69386E+02  -.11532E+02
   .40400E+01   .68867E+02  -.11455E+02
   .40500E+01   .68587E+02  -.11418E+02
   .40600E+01   .68287E+02  -.11380E+02
   .40730E+01   .67876E+02  -.11331E+02
   .40860E+01   .67425E+02  -.11282E+02
   .41000E+01   .66892E+02  -.11231E+02
   .41100E+01   .66474E+02  -.11195E+02
   .41200E+01   .66018E+02  -.11159E+02
   .41300E+01   .65515E+02  -.11122E+02
   .41400E+01   .64964E+02  -.11086E+02
   .41500E+01   .64341E+02  -.11049E+02
   .41600E+01   .63631E+02  -.11013E+02
   .41700E+01   .62804E+02  -.10978E+02
   .41750E+01   .62333E+02  -.10961E+02
   .41800E+01   .61813E+02  -.10943E+02
   .41850E+01   .61234E+02  -.10926E+02
   .41900E+01   .60579E+02  -.10908E+02
   .41950E+01   .59827E+02  -.10891E+02
   .42000E+01   .58945E+02  -.10873E+02
   .42050E+01   .57883E+02  -.10856E+02
   .42100E+01   .56556E+02  -.10838E+02
   .42150E+01   .54808E+02  -.10821E+02
   .42200E+01   .52324E+02  -.10804E+02
   .42240E+01   .49312E+02  -.10790E+02
   .42260E+01   .47169E+02  -.10783E+02
   .42280E+01   .44274E+02  -.10776E+02
   .42300E+01   .40081E+02  -.10769E+02
   .42320E+01   .33318E+02  -.10762E+02
   .42340E+01   .20119E+02  -.10755E+02
   .42364E+01  -.10808E+03  -.10746E+02
   .42364E+01  -.25039E+02  -.29770E+03
   .42365E+01   .57588E+02  -.10746E+02
   .42373E+01  -.98934E+02  -.10743E+02
   .42382E+01  -.16126E+04  -.10740E+02
   .42382E+01   .62112E+02  -.55327E+04
   .42383E+01   .17369E+04  -.10740E+02
   .42399E+01   .15093E+03  -.10734E+02
   .42414E+01   .10672E+03  -.10729E+02
   .42421E+01   .97080E+02  -.10727E+02
   .42429E+01   .89825E+02  -.10724E+02
   .42437E+01   .84471E+02  -.10721E+02
   .42444E+01   .79061E+02  -.10719E+02
   .42445E+01   .80730E+02  -.17393E+02
   .42446E+01   .82347E+02  -.10718E+02
   .42452E+01   .78054E+02  -.10716E+02
   .42458E+01   .75094E+02  -.10714E+02
   .42459E+01   .75421E+02  -.12884E+02
   .42460E+01   .75735E+02  -.10714E+02
   .42461E+01   .74754E+02  -.10713E+02
   .42463E+01   .73804E+02  -.10713E+02
   .42463E+01   .74015E+02  -.12638E+02
   .42464E+01   .74230E+02  -.10712E+02
   .42465E+01   .73618E+02  -.10712E+02
   .42466E+01   .73017E+02  -.10712E+02
   .42467E+01   .73181E+02  -.12522E+02
   .42467E+01   .73335E+02  -.10711E+02
   .42468E+01   .73000E+02  -.10711E+02
   .42468E+01   .72774E+02  -.10711E+02
   .42469E+01   .72764E+02  -.12155E+02
   .42469E+01   .72753E+02  -.10710E+02
   .42469E+01   .72814E+02  -.10710E+02
   .42470E+01   .72887E+02  -.10710E+02
   .42470E+01   .72656E+02  -.11280E+02
   .42471E+01   .72425E+02  -.10710E+02
   .42473E+01   .71499E+02  -.10709E+02
   .42474E+01   .71116E+02  -.10709E+02
   .42474E+01   .70923E+02  -.10709E+02
   .42475E+01   .70722E+02  -.10708E+02
   .42476E+01   .70508E+02  -.10708E+02
   .42476E+01   .70225E+02  -.10708E+02
   .42477E+01   .69953E+02  -.10750E+02
   .42477E+01   .69699E+02  -.10969E+02
   .42478E+01   .69504E+02  -.11284E+02
   .42478E+01   .69452E+02  -.11529E+02
   .42479E+01   .69430E+02  -.11562E+02
   .42480E+01   .69309E+02  -.11599E+02
   .42481E+01   .69222E+02  -.11623E+02
   .42481E+01   .69131E+02  -.11646E+02
   .42482E+01   .68942E+02  -.11693E+02
   .42485E+01   .68353E+02  -.11839E+02
   .42487E+01   .67964E+02  -.11944E+02
   .42490E+01   .67396E+02  -.12102E+02
   .42495E+01   .66500E+02  -.12385E+02
   .42500E+01   .65669E+02  -.12686E+02
   .42505E+01   .64910E+02  -.13002E+02
   .42510E+01   .64195E+02  -.13334E+02
   .42514E+01   .63676E+02  -.13608E+02
   .42518E+01   .63180E+02  -.13889E+02
   .42525E+01   .62400E+02  -.14398E+02
   .42533E+01   .61624E+02  -.14997E+02
   .42540E+01   .61040E+02  -.15533E+02
   .42548E+01   .60473E+02  -.16150E+02
   .42555E+01   .60062E+02  -.16689E+02
   .42562E+01   .59721E+02  -.17222E+02
   .42570E+01   .59417E+02  -.17816E+02
   .42578E+01   .59191E+02  -.18388E+02
   .42585E+01   .59053E+02  -.18866E+02
   .42592E+01   .58961E+02  -.19320E+02
   .42596E+01   .58932E+02  -.19567E+02
   .42600E+01   .58908E+02  -.19806E+02
   .42607E+01   .58910E+02  -.20202E+02
   .42615E+01   .58930E+02  -.20619E+02
   .42622E+01   .58983E+02  -.20953E+02
   .42630E+01   .59058E+02  -.21301E+02
   .42635E+01   .59121E+02  -.21500E+02
   .42640E+01   .59189E+02  -.21687E+02
   .42645E+01   .59261E+02  -.21860E+02
   .42650E+01   .59338E+02  -.22022E+02
   .42658E+01   .59457E+02  -.22257E+02
   .42665E+01   .59568E+02  -.22440E+02
   .42673E+01   .59704E+02  -.22628E+02
   .42680E+01   .59830E+02  -.22774E+02
   .42685E+01   .59912E+02  -.22870E+02
   .42690E+01   .59996E+02  -.22959E+02
   .42700E+01   .60156E+02  -.23118E+02
   .42715E+01   .60382E+02  -.23319E+02
   .42730E+01   .60594E+02  -.23484E+02
   .42740E+01   .60723E+02  -.23579E+02
   .42750E+01   .60859E+02  -.23664E+02
   .42770E+01   .61098E+02  -.23813E+02
   .42800E+01   .61422E+02  -.23997E+02
   .42815E+01   .61578E+02  -.24077E+02
   .42830E+01   .61729E+02  -.24150E+02
   .42870E+01   .62108E+02  -.24312E+02
   .42910E+01   .62470E+02  -.24436E+02
   .42950E+01   .62821E+02  -.24520E+02
   .42990E+01   .63152E+02  -.24557E+02
   .43030E+01   .63453E+02  -.24563E+02
   .43060E+01   .63661E+02  -.24546E+02
   .43100E+01   .63905E+02  -.24511E+02
   .43140E+01   .64116E+02  -.24461E+02
   .43180E+01   .64298E+02  -.24412E+02
   .43220E+01   .64456E+02  -.24364E+02
   .43250E+01   .64561E+02  -.24329E+02
   .43290E+01   .64689E+02  -.24291E+02
   .43320E+01   .64778E+02  -.24262E+02
   .43400E+01   .64982E+02  -.24185E+02
   .43460E+01   .65109E+02  -.24135E+02
   .43520E+01   .65219E+02  -.24086E+02
   .43580E+01   .65313E+02  -.24030E+02
   .43640E+01   .65383E+02  -.23973E+02
   .43710E+01   .65435E+02  -.23906E+02
   .43770E+01   .65456E+02  -.23848E+02
   .43840E+01   .65450E+02  -.23780E+02
   .43900E+01   .65419E+02  -.23722E+02
   .43980E+01   .65335E+02  -.23646E+02
   .44050E+01   .65217E+02  -.23579E+02
   .44130E+01   .65021E+02  -.23503E+02
   .44200E+01   .64785E+02  -.23436E+02
   .44280E+01   .64417E+02  -.23365E+02
   .44350E+01   .63979E+02  -.23302E+02
   .44430E+01   .63289E+02  -.23231E+02
   .44500E+01   .62418E+02  -.23168E+02
   .44540E+01   .61741E+02  -.23134E+02
   .44570E+01   .61102E+02  -.23108E+02
   .44610E+01   .59986E+02  -.23074E+02
   .44650E+01   .58375E+02  -.23039E+02
   .44690E+01   .55802E+02  -.23005E+02
   .44710E+01   .53806E+02  -.22988E+02
   .44730E+01   .50876E+02  -.22971E+02
   .44750E+01   .46096E+02  -.22954E+02
   .44770E+01   .36742E+02  -.22937E+02
   .44790E+01   .94163E+01  -.22919E+02
   .44809E+01  -.11599E+04  -.22903E+02
   .44810E+01   .63890E+02  -.38941E+04
   .44811E+01   .12877E+04  -.22901E+02
   .44830E+01   .12057E+03  -.22885E+02
   .44839E+01   .10248E+03  -.22878E+02
   .44848E+01   .92640E+02  -.22869E+02
   .44859E+01   .85995E+02  -.22861E+02
   .44870E+01   .81443E+02  -.22851E+02
   .44878E+01   .78868E+02  -.22844E+02
   .44886E+01   .74554E+02  -.22838E+02
   .44886E+01   .77156E+02  -.31754E+02
   .44887E+01   .79590E+02  -.22837E+02
   .44889E+01   .77672E+02  -.22835E+02
   .44890E+01   .76821E+02  -.22834E+02
   .44891E+01   .76679E+02  -.23436E+02
   .44892E+01   .76577E+02  -.22833E+02
   .44897E+01   .75088E+02  -.22828E+02
   .44903E+01   .73267E+02  -.22824E+02
   .44903E+01   .73915E+02  -.25454E+02
   .44904E+01   .74560E+02  -.22822E+02
   .44906E+01   .73556E+02  -.22820E+02
   .44908E+01   .72741E+02  -.22819E+02
   .44909E+01   .73016E+02  -.24374E+02
   .44910E+01   .73246E+02  -.22817E+02
   .44911E+01   .72778E+02  -.22817E+02
   .44912E+01   .72321E+02  -.22816E+02
   .44913E+01   .72526E+02  -.24266E+02
   .44914E+01   .72711E+02  -.22814E+02
   .44914E+01   .72426E+02  -.22814E+02
   .44914E+01   .72216E+02  -.22814E+02
   .44915E+01   .72202E+02  -.23772E+02
   .44916E+01   .72167E+02  -.22812E+02
   .44917E+01   .71758E+02  -.22954E+02
   .44918E+01   .71550E+02  -.23156E+02
   .44918E+01   .71490E+02  -.23360E+02
   .44919E+01   .71468E+02  -.23377E+02
   .44920E+01   .71421E+02  -.23395E+02
   .44921E+01   .71336E+02  -.23414E+02
   .44922E+01   .71164E+02  -.23451E+02
   .44924E+01   .70989E+02  -.23489E+02
   .44925E+01   .70809E+02  -.23528E+02
   .44928E+01   .70462E+02  -.23613E+02
   .44934E+01   .69801E+02  -.23800E+02
   .44940E+01   .69199E+02  -.23997E+02
   .44945E+01   .68736E+02  -.24185E+02
   .44950E+01   .68298E+02  -.24375E+02
   .44955E+01   .67901E+02  -.24585E+02
   .44960E+01   .67523E+02  -.24796E+02
   .44968E+01   .66989E+02  -.25160E+02
   .44975E+01   .66579E+02  -.25490E+02
   .44983E+01   .66177E+02  -.25882E+02
   .44990E+01   .65880E+02  -.26225E+02
   .44995E+01   .65697E+02  -.26473E+02
   .45000E+01   .65538E+02  -.26721E+02
   .45005E+01   .65402E+02  -.26965E+02
   .45010E+01   .65288E+02  -.27209E+02
   .45018E+01   .65144E+02  -.27584E+02
   .45025E+01   .65062E+02  -.27899E+02
   .45033E+01   .65004E+02  -.28245E+02
   .45040E+01   .64984E+02  -.28530E+02
   .45050E+01   .64996E+02  -.28903E+02
   .45060E+01   .65050E+02  -.29241E+02
   .45070E+01   .65134E+02  -.29538E+02
   .45080E+01   .65231E+02  -.29799E+02
   .45090E+01   .65346E+02  -.30026E+02
   .45100E+01   .65472E+02  -.30223E+02
   .45115E+01   .65657E+02  -.30470E+02
   .45130E+01   .65860E+02  -.30667E+02
   .45140E+01   .65983E+02  -.30774E+02
   .45150E+01   .66112E+02  -.30871E+02
   .45180E+01   .66456E+02  -.31099E+02
   .45200E+01   .66669E+02  -.31213E+02
   .45230E+01   .66968E+02  -.31348E+02
   .45250E+01   .67158E+02  -.31422E+02
   .45270E+01   .67337E+02  -.31481E+02
   .45300E+01   .67605E+02  -.31570E+02
   .45350E+01   .68040E+02  -.31672E+02
   .45400E+01   .68458E+02  -.31717E+02
   .45450E+01   .68848E+02  -.31722E+02
   .45500E+01   .69208E+02  -.31694E+02
   .45550E+01   .69534E+02  -.31644E+02
   .45600E+01   .69828E+02  -.31584E+02
   .45650E+01   .70095E+02  -.31523E+02
   .45700E+01   .70342E+02  -.31462E+02
   .45730E+01   .70482E+02  -.31431E+02
   .45770E+01   .70665E+02  -.31390E+02
   .45850E+01   .71015E+02  -.31307E+02
   .45920E+01   .71304E+02  -.31235E+02
   .46000E+01   .71622E+02  -.31153E+02
   .46100E+01   .71995E+02  -.31037E+02
   .46200E+01   .72338E+02  -.30922E+02
   .46300E+01   .72659E+02  -.30807E+02
   .46400E+01   .72960E+02  -.30691E+02
   .46500E+01   .73241E+02  -.30586E+02
   .46600E+01   .73507E+02  -.30481E+02
   .46700E+01   .73763E+02  -.30376E+02
   .46800E+01   .74007E+02  -.30271E+02
   .46900E+01   .74240E+02  -.30166E+02
   .47000E+01   .74462E+02  -.30061E+02
   .47100E+01   .74675E+02  -.29956E+02
   .47200E+01   .74880E+02  -.29851E+02
   .47400E+01   .75263E+02  -.29653E+02
   .47600E+01   .75615E+02  -.29454E+02
   .47800E+01   .75938E+02  -.29256E+02
   .47921E+01   .76120E+02  -.29136E+02
   .48060E+01   .76318E+02  -.29003E+02
   .48200E+01   .76504E+02  -.28868E+02
   .48350E+01   .76690E+02  -.28725E+02
   .48500E+01   .76861E+02  -.28581E+02
   .48650E+01   .77019E+02  -.28442E+02
   .48800E+01   .77162E+02  -.28303E+02
   .49000E+01   .77330E+02  -.28118E+02
   .49100E+01   .77403E+02  -.28028E+02
   .49200E+01   .77469E+02  -.27939E+02
   .49350E+01   .77554E+02  -.27806E+02
   .49500E+01   .77619E+02  -.27672E+02
   .49600E+01   .77650E+02  -.27583E+02
   .49700E+01   .77671E+02  -.27494E+02
   .49850E+01   .77679E+02  -.27360E+02
   .50000E+01   .77653E+02  -.27227E+02
   .50050E+01   .77635E+02  -.27183E+02
   .50100E+01   .77612E+02  -.27140E+02
   .50200E+01   .77546E+02  -.27053E+02
   .50280E+01   .77472E+02  -.26983E+02
   .50350E+01   .77387E+02  -.26923E+02
   .50430E+01   .77261E+02  -.26853E+02
   .50500E+01   .77117E+02  -.26792E+02
   .50550E+01   .76990E+02  -.26750E+02
   .50600E+01   .76837E+02  -.26708E+02
   .50650E+01   .76648E+02  -.26665E+02
   .50670E+01   .76559E+02  -.26648E+02
   .50700E+01   .76410E+02  -.26623E+02
   .50730E+01   .76235E+02  -.26598E+02
   .50760E+01   .76029E+02  -.26572E+02
   .50790E+01   .75779E+02  -.26547E+02
   .50810E+01   .75580E+02  -.26530E+02
   .50840E+01   .75213E+02  -.26504E+02
   .50855E+01   .74988E+02  -.26492E+02
   .50870E+01   .74723E+02  -.26479E+02
   .50885E+01   .74402E+02  -.26466E+02
   .50900E+01   .73998E+02  -.26454E+02
   .50913E+01   .73526E+02  -.26443E+02
   .50925E+01   .72120E+02  -.26432E+02
   .50926E+01   .72989E+02  -.29425E+02
   .50927E+01   .73855E+02  -.26431E+02
   .50935E+01   .72364E+02  -.26424E+02
   .50943E+01   .67012E+02  -.26417E+02
   .50944E+01   .72439E+02  -.44170E+02
   .50945E+01   .77865E+02  -.26415E+02
   .50952E+01   .72639E+02  -.26410E+02
   .50959E+01   .71656E+02  -.26404E+02
   .50966E+01   .70728E+02  -.26398E+02
   .50973E+01   .69633E+02  -.26392E+02
   .50979E+01   .68223E+02  -.26387E+02
   .50986E+01   .65755E+02  -.26381E+02
   .50989E+01   .64115E+02  -.26379E+02
   .50993E+01   .60739E+02  -.26376E+02
   .50997E+01   .53746E+02  -.26372E+02
   .51000E+01   .31724E+02  -.26370E+02
   .51001E+01   .48244E+02  -.92269E+02
   .51002E+01   .63070E+02  -.26368E+02
   .51004E+01   .32138E+02  -.26367E+02
   .51006E+01  -.44428E+02  -.26365E+02
   .51006E+01   .74861E+02  -.41618E+03
   .51007E+01   .19439E+03  -.26363E+02
   .51010E+01   .11083E+03  -.26361E+02
   .51012E+01   .91183E+02  -.26360E+02
   .51013E+01   .89999E+02  -.35455E+02
   .51014E+01   .89591E+02  -.26358E+02
   .51017E+01   .80131E+02  -.26356E+02
   .51020E+01   .63391E+02  -.26353E+02
   .51021E+01   .80461E+02  -.83768E+02
   .51022E+01   .95824E+02  -.26352E+02
   .51022E+01   .94073E+02  -.26352E+02
   .51023E+01   .85842E+02  -.29621E+02
   .51024E+01   .81888E+02  -.26350E+02
   .51024E+01   .78530E+02  -.26350E+02
   .51025E+01   .74723E+02  -.26349E+02
   .51026E+01   .79724E+02  -.50261E+02
   .51027E+01   .84277E+02  -.26347E+02
   .51027E+01   .82328E+02  -.26347E+02
   .51027E+01   .80522E+02  -.26347E+02
   .51028E+01   .79874E+02  -.33310E+02
   .51028E+01   .80021E+02  -.39113E+02
   .51029E+01   .80052E+02  -.32729E+02
   .51029E+01   .79390E+02  -.26345E+02
   .51030E+01   .80299E+02  -.42445E+02
   .51031E+01   .81526E+02  -.26344E+02
   .51031E+01   .81820E+02  -.26344E+02
   .51031E+01   .82528E+02  -.26344E+02
   .51032E+01   .79999E+02  -.33262E+02
   .51033E+01   .78928E+02  -.29028E+02
   .51034E+01   .77828E+02  -.31432E+02
   .51035E+01   .78218E+02  -.32661E+02
   .51036E+01   .78921E+02  -.32583E+02
   .51037E+01   .79012E+02  -.32506E+02
   .51038E+01   .79029E+02  -.32455E+02
   .51038E+01   .79027E+02  -.32396E+02
   .51039E+01   .79014E+02  -.32351E+02
   .51040E+01   .78994E+02  -.32299E+02
   .51041E+01   .78959E+02  -.32242E+02
   .51042E+01   .78922E+02  -.32185E+02
   .51043E+01   .78885E+02  -.32127E+02
   .51044E+01   .78844E+02  -.32070E+02
   .51045E+01   .78816E+02  -.32036E+02
   .51045E+01   .78786E+02  -.31998E+02
   .51047E+01   .78728E+02  -.31926E+02
   .51049E+01   .78655E+02  -.31844E+02
   .51051E+01   .78586E+02  -.31762E+02
   .51052E+01   .78536E+02  -.31709E+02
   .51054E+01   .78488E+02  -.31656E+02
   .51057E+01   .78403E+02  -.31568E+02
   .51060E+01   .78327E+02  -.31479E+02
   .51063E+01   .78256E+02  -.31409E+02
   .51065E+01   .78213E+02  -.31361E+02
   .51067E+01   .78173E+02  -.31322E+02
   .51070E+01   .78118E+02  -.31262E+02
   .51075E+01   .78038E+02  -.31180E+02
   .51080E+01   .77969E+02  -.31110E+02
   .51085E+01   .77915E+02  -.31056E+02
   .51090E+01   .77868E+02  -.31001E+02
   .51095E+01   .77829E+02  -.30962E+02
   .51100E+01   .77797E+02  -.30923E+02
   .51110E+01   .77749E+02  -.30866E+02
   .51120E+01   .77720E+02  -.30824E+02
   .51130E+01   .77708E+02  -.30797E+02
   .51140E+01   .77708E+02  -.30770E+02
   .51160E+01   .77733E+02  -.30739E+02
   .51180E+01   .77785E+02  -.30719E+02
   .51200E+01   .77855E+02  -.30700E+02
   .51230E+01   .77971E+02  -.30667E+02
   .51250E+01   .78051E+02  -.30644E+02
   .51280E+01   .78173E+02  -.30611E+02
   .51300E+01   .78255E+02  -.30588E+02
   .51330E+01   .78374E+02  -.30547E+02
   .51350E+01   .78448E+02  -.30519E+02
   .51380E+01   .78553E+02  -.30477E+02
   .51400E+01   .78616E+02  -.30449E+02
   .51450E+01   .78772E+02  -.30400E+02
   .51500E+01   .78925E+02  -.30351E+02
   .51550E+01   .79071E+02  -.30302E+02
   .51600E+01   .79205E+02  -.30252E+02
   .51650E+01   .79335E+02  -.30214E+02
   .51700E+01   .79464E+02  -.30176E+02
   .51800E+01   .79716E+02  -.30100E+02
   .51900E+01   .79953E+02  -.30014E+02
   .52000E+01   .80174E+02  -.29929E+02
   .52100E+01   .80380E+02  -.29844E+02
   .52200E+01   .80575E+02  -.29758E+02
   .52300E+01   .80763E+02  -.29677E+02
   .52400E+01   .80944E+02  -.29595E+02
   .52600E+01   .81288E+02  -.29431E+02
   .52800E+01   .81606E+02  -.29268E+02
   .53000E+01   .81902E+02  -.29105E+02
   .53200E+01   .82182E+02  -.28941E+02
   .53300E+01   .82317E+02  -.28860E+02
   .53400E+01   .82456E+02  -.28778E+02
   .53500E+01   .82575E+02  -.28698E+02
   .53600E+01   .82699E+02  -.28619E+02
   .53800E+01   .82938E+02  -.28459E+02
   .54000E+01   .83167E+02  -.28300E+02
   .54147E+01   .83329E+02  -.28183E+02
   .54300E+01   .83492E+02  -.28064E+02
   .54500E+01   .83696E+02  -.27908E+02
   .54700E+01   .83892E+02  -.27753E+02
   .54900E+01   .84080E+02  -.27597E+02
   .55100E+01   .84262E+02  -.27446E+02
   .55300E+01   .84436E+02  -.27295E+02
   .55500E+01   .84604E+02  -.27144E+02
   .55700E+01   .84765E+02  -.26993E+02
   .56100E+01   .85071E+02  -.26701E+02
   .56500E+01   .85356E+02  -.26410E+02
   .56900E+01   .85622E+02  -.26128E+02
   .57232E+01   .85829E+02  -.25894E+02
   .57600E+01   .86045E+02  -.25643E+02
   .57900E+01   .86212E+02  -.25438E+02
   .58200E+01   .86371E+02  -.25237E+02
   .58600E+01   .86568E+02  -.24968E+02
   .58900E+01   .86705E+02  -.24772E+02
   .59300E+01   .86875E+02  -.24511E+02
   .59600E+01   .86992E+02  -.24322E+02
   .59800E+01   .87066E+02  -.24195E+02
   .60000E+01   .87136E+02  -.24068E+02
   .60200E+01   .87202E+02  -.23946E+02
   .60500E+01   .87292E+02  -.23762E+02
   .60700E+01   .87347E+02  -.23639E+02
   .61000E+01   .87420E+02  -.23455E+02
   .61300E+01   .87482E+02  -.23279E+02
   .61500E+01   .87515E+02  -.23161E+02
   .61800E+01   .87551E+02  -.22985E+02
   .62000E+01   .87564E+02  -.22867E+02
   .62200E+01   .87566E+02  -.22754E+02
   .62400E+01   .87553E+02  -.22641E+02
   .62550E+01   .87530E+02  -.22556E+02
   .62630E+01   .87512E+02  -.22510E+02
   .62700E+01   .87492E+02  -.22471E+02
   .62800E+01   .87455E+02  -.22416E+02
   .62900E+01   .87405E+02  -.22361E+02
   .63000E+01   .87336E+02  -.22306E+02
   .63050E+01   .87291E+02  -.22278E+02
   .63100E+01   .87238E+02  -.22250E+02
   .63150E+01   .87172E+02  -.22223E+02
   .63200E+01   .87090E+02  -.22195E+02
   .63250E+01   .86982E+02  -.22168E+02
   .63300E+01   .86835E+02  -.22140E+02
   .63340E+01   .86666E+02  -.22118E+02
   .63370E+01   .86481E+02  -.22102E+02
   .63385E+01   .86354E+02  -.22094E+02
   .63400E+01   .86180E+02  -.22085E+02
   .63415E+01   .85884E+02  -.22077E+02
   .63431E+01   .81917E+02  -.22068E+02
   .63432E+01   .85957E+02  -.35037E+02
   .63433E+01   .89997E+02  -.22067E+02
   .63442E+01   .86318E+02  -.22062E+02
   .63450E+01   .85894E+02  -.22058E+02
   .63460E+01   .85487E+02  -.22053E+02
   .63470E+01   .85018E+02  -.22047E+02
   .63475E+01   .84679E+02  -.22044E+02
   .63480E+01   .84262E+02  -.22042E+02
   .63485E+01   .83684E+02  -.22039E+02
   .63490E+01   .82808E+02  -.22036E+02
   .63494E+01   .81672E+02  -.22034E+02
   .63498E+01   .79611E+02  -.22032E+02
   .63502E+01   .74522E+02  -.22030E+02
   .63506E+01   .40147E+02  -.22028E+02
   .63507E+01   .64020E+02  -.10039E+03
   .63507E+01   .85702E+02  -.16757E+03
   .63509E+01   .13125E+03  -.22026E+02
   .63511E+01   .10107E+03  -.22025E+02
   .63513E+01   .95162E+02  -.22024E+02
   .63515E+01   .93133E+02  -.22023E+02
   .63516E+01   .91643E+02  -.22022E+02
   .63517E+01   .90727E+02  -.22022E+02
   .63518E+01   .89853E+02  -.22021E+02
   .63519E+01   .89702E+02  -.23014E+02
   .63519E+01   .89605E+02  -.23865E+02
   .63520E+01   .89399E+02  -.22020E+02
   .63522E+01   .88435E+02  -.22019E+02
   .63523E+01   .87515E+02  -.22019E+02
   .63524E+01   .86185E+02  -.22018E+02
   .63525E+01   .83826E+02  -.22337E+02
   .63526E+01   .85317E+02  -.22763E+02
   .63526E+01   .86940E+02  -.34595E+02
   .63527E+01   .90489E+02  -.23658E+02
   .63529E+01   .88874E+02  -.24308E+02
   .63530E+01   .87849E+02  -.23630E+02
   .63530E+01   .87717E+02  -.23628E+02
   .63530E+01   .87410E+02  -.23627E+02
   .63532E+01   .88461E+02  -.28509E+02
   .63533E+01   .89336E+02  -.23600E+02
   .63533E+01   .88704E+02  -.23595E+02
   .63534E+01   .88072E+02  -.23590E+02
   .63535E+01   .88957E+02  -.28413E+02
   .63536E+01   .89938E+02  -.23563E+02
   .63537E+01   .89760E+02  -.23563E+02
   .63538E+01   .89592E+02  -.25730E+02
   .63539E+01   .89893E+02  -.23535E+02
   .63541E+01   .89184E+02  -.23524E+02
   .63543E+01   .88875E+02  -.23511E+02
   .63545E+01   .88682E+02  -.23499E+02
   .63547E+01   .88543E+02  -.23487E+02
   .63549E+01   .88435E+02  -.23475E+02
   .63551E+01   .88344E+02  -.23462E+02
   .63555E+01   .88207E+02  -.23438E+02
   .63559E+01   .88105E+02  -.23423E+02
   .63563E+01   .88022E+02  -.23408E+02
   .63567E+01   .87958E+02  -.23393E+02
   .63570E+01   .87915E+02  -.23382E+02
   .63578E+01   .87828E+02  -.23366E+02
   .63585E+01   .87774E+02  -.23351E+02
   .63593E+01   .87724E+02  -.23340E+02
   .63600E+01   .87693E+02  -.23331E+02
   .63620E+01   .87635E+02  -.23317E+02
   .63640E+01   .87611E+02  -.23303E+02
   .63655E+01   .87605E+02  -.23297E+02
   .63670E+01   .87607E+02  -.23292E+02
   .63700E+01   .87624E+02  -.23276E+02
   .63730E+01   .87650E+02  -.23261E+02
   .63760E+01   .87678E+02  -.23243E+02
   .63800E+01   .87718E+02  -.23218E+02
   .63830E+01   .87747E+02  -.23199E+02
   .63860E+01   .87775E+02  -.23179E+02
   .63890E+01   .87800E+02  -.23159E+02
   .63920E+01   .87824E+02  -.23139E+02
   .63980E+01   .87873E+02  -.23107E+02
   .64038E+01   .87919E+02  -.23074E+02
   .64120E+01   .87978E+02  -.23032E+02
   .64200E+01   .88035E+02  -.22991E+02
   .64300E+01   .88104E+02  -.22939E+02
   .64400E+01   .88168E+02  -.22888E+02
   .64500E+01   .88228E+02  -.22836E+02
   .64600E+01   .88283E+02  -.22784E+02
   .64800E+01   .88386E+02  -.22681E+02
   .64950E+01   .88457E+02  -.22605E+02
   .65100E+01   .88525E+02  -.22528E+02
   .65300E+01   .88605E+02  -.22427E+02
   .65495E+01   .88676E+02  -.22328E+02
   .65700E+01   .88742E+02  -.22228E+02
   .66000E+01   .88824E+02  -.22082E+02
   .66100E+01   .88847E+02  -.22033E+02
   .66200E+01   .88867E+02  -.21985E+02
   .66350E+01   .88893E+02  -.21912E+02
   .66500E+01   .88911E+02  -.21839E+02
   .66600E+01   .88918E+02  -.21790E+02
   .66700E+01   .88920E+02  -.21741E+02
   .66780E+01   .88918E+02  -.21702E+02
   .66850E+01   .88912E+02  -.21668E+02
   .66930E+01   .88900E+02  -.21629E+02
   .67000E+01   .88883E+02  -.21595E+02
   .67050E+01   .88865E+02  -.21571E+02
   .67100E+01   .88843E+02  -.21547E+02
   .67150E+01   .88814E+02  -.21522E+02
   .67200E+01   .88774E+02  -.21498E+02
   .67240E+01   .88733E+02  -.21479E+02
   .67270E+01   .88694E+02  -.21464E+02
   .67300E+01   .88644E+02  -.21449E+02
   .67330E+01   .88578E+02  -.21435E+02
   .67345E+01   .88536E+02  -.21427E+02
   .67360E+01   .88486E+02  -.21420E+02
   .67375E+01   .88424E+02  -.21413E+02
   .67390E+01   .88342E+02  -.21406E+02
   .67405E+01   .88230E+02  -.21398E+02
   .67413E+01   .88147E+02  -.21394E+02
   .67420E+01   .88054E+02  -.21391E+02
   .67425E+01   .87968E+02  -.21389E+02
   .67430E+01   .87856E+02  -.21386E+02
   .67435E+01   .87701E+02  -.21384E+02
   .67440E+01   .87461E+02  -.21381E+02
   .67443E+01   .87230E+02  -.21380E+02
   .67446E+01   .86845E+02  -.21378E+02
   .67452E+01   .82582E+02  -.21376E+02
   .67452E+01   .83733E+02  -.25862E+02
   .67452E+01   .84799E+02  -.29226E+02
   .67453E+01   .87271E+02  -.37077E+02
   .67455E+01   .91780E+02  -.21374E+02
   .67455E+01   .89493E+02  -.21374E+02
   .67456E+01   .87864E+02  -.21374E+02
   .67458E+01   .89187E+02  -.27906E+02
   .67459E+01   .90873E+02  -.21372E+02
   .67460E+01   .89477E+02  -.21372E+02
   .67462E+01   .88879E+02  -.21371E+02
   .67463E+01   .88596E+02  -.21370E+02
   .67464E+01   .88321E+02  -.21370E+02
   .67465E+01   .88150E+02  -.21369E+02
   .67466E+01   .87972E+02  -.21369E+02
   .67466E+01   .87776E+02  -.21369E+02
   .67467E+01   .87510E+02  -.21368E+02
   .67467E+01   .87303E+02  -.21368E+02
   .67468E+01   .86976E+02  -.21368E+02
   .67469E+01   .85804E+02  -.21367E+02
   .67470E+01   .86145E+02  -.21399E+02
   .67470E+01   .86605E+02  -.21531E+02
   .67471E+01   .87431E+02  -.27752E+02
   .67471E+01   .88239E+02  -.21965E+02
   .67472E+01   .89262E+02  -.22210E+02
   .67473E+01   .88639E+02  -.22305E+02
   .67473E+01   .88383E+02  -.22304E+02
   .67474E+01   .88083E+02  -.22303E+02
   .67475E+01   .87716E+02  -.22303E+02
   .67476E+01   .87993E+02  -.23592E+02
   .67476E+01   .88320E+02  -.24882E+02
   .67477E+01   .88627E+02  -.23591E+02
   .67478E+01   .88829E+02  -.22300E+02
   .67478E+01   .88660E+02  -.22300E+02
   .67478E+01   .88434E+02  -.22299E+02
   .67480E+01   .88734E+02  -.24375E+02
   .67481E+01   .89018E+02  -.22297E+02
   .67481E+01   .89091E+02  -.22297E+02
   .67481E+01   .89156E+02  -.22297E+02
   .67482E+01   .89155E+02  -.23594E+02
   .67483E+01   .89393E+02  -.22294E+02
   .67487E+01   .88928E+02  -.22290E+02
   .67490E+01   .88831E+02  -.22287E+02
   .67493E+01   .88784E+02  -.22284E+02
   .67497E+01   .88752E+02  -.22280E+02
   .67500E+01   .88741E+02  -.22277E+02
   .67503E+01   .88735E+02  -.22274E+02
   .67510E+01   .88733E+02  -.22267E+02
   .67518E+01   .88742E+02  -.22259E+02
   .67525E+01   .88754E+02  -.22252E+02
   .67533E+01   .88768E+02  -.22243E+02
   .67540E+01   .88781E+02  -.22236E+02
   .67555E+01   .88810E+02  -.22225E+02
   .67570E+01   .88838E+02  -.22214E+02
   .67585E+01   .88866E+02  -.22203E+02
   .67600E+01   .88890E+02  -.22191E+02
   .67630E+01   .88937E+02  -.22176E+02
   .67650E+01   .88964E+02  -.22166E+02
   .67680E+01   .89005E+02  -.22150E+02
   .67700E+01   .89029E+02  -.22140E+02
   .67750E+01   .89087E+02  -.22119E+02
   .67800E+01   .89141E+02  -.22099E+02
   .67840E+01   .89183E+02  -.22081E+02
   .67880E+01   .89221E+02  -.22064E+02
   .67950E+01   .89286E+02  -.22034E+02
   .68030E+01   .89355E+02  -.21996E+02
   .68100E+01   .89409E+02  -.21962E+02
   .68180E+01   .89466E+02  -.21924E+02
   .68250E+01   .89513E+02  -.21891E+02
   .68400E+01   .89606E+02  -.21820E+02
   .68550E+01   .89692E+02  -.21752E+02
   .68700E+01   .89773E+02  -.21684E+02
   .68850E+01   .89849E+02  -.21615E+02
   .69000E+01   .89921E+02  -.21547E+02
   .69150E+01   .89990E+02  -.21479E+02
   .69300E+01   .90055E+02  -.21411E+02
   .69600E+01   .90179E+02  -.21279E+02
   .69800E+01   .90258E+02  -.21191E+02
   .70000E+01   .90334E+02  -.21103E+02
   .70300E+01   .90442E+02  -.20975E+02
   .70700E+01   .90577E+02  -.20803E+02
   .71100E+01   .90705E+02  -.20632E+02
   .71500E+01   .90825E+02  -.20462E+02
   .71800E+01   .90910E+02  -.20340E+02
   .72200E+01   .91020E+02  -.20177E+02
   .72600E+01   .91124E+02  -.20015E+02
   .73000E+01   .91224E+02  -.19853E+02
   .73300E+01   .91296E+02  -.19736E+02
   .73500E+01   .91342E+02  -.19658E+02
   .74000E+01   .91455E+02  -.19463E+02
   .74500E+01   .91562E+02  -.19275E+02
   .75000E+01   .91664E+02  -.19087E+02
   .75300E+01   .91723E+02  -.18978E+02
   .75700E+01   .91799E+02  -.18833E+02
   .76100E+01   .91872E+02  -.18687E+02
   .76500E+01   .91943E+02  -.18542E+02
   .77200E+01   .92060E+02  -.18299E+02
   .78000E+01   .92185E+02  -.18022E+02
   .78500E+01   .92259E+02  -.17856E+02
   .79000E+01   .92330E+02  -.17690E+02
   .79500E+01   .92398E+02  -.17528E+02
   .80000E+01   .92464E+02  -.17367E+02
   .80100E+01   .92477E+02  -.17335E+02
   .80200E+01   .92490E+02  -.17303E+02
   .80340E+01   .92508E+02  -.17259E+02
   .80478E+01   .92525E+02  -.17215E+02
   .81100E+01   .92600E+02  -.17023E+02
   .81700E+01   .92668E+02  -.16837E+02
   .82400E+01   .92743E+02  -.16629E+02
   .83000E+01   .92805E+02  -.16450E+02
   .83500E+01   .92854E+02  -.16306E+02
   .84000E+01   .92901E+02  -.16162E+02
   .84500E+01   .92947E+02  -.16022E+02
   .85000E+01   .92991E+02  -.15883E+02
   .85700E+01   .93050E+02  -.15691E+02
   .86500E+01   .93113E+02  -.15473E+02
   .87200E+01   .93163E+02  -.15290E+02
   .88000E+01   .93218E+02  -.15081E+02
   .88500E+01   .93250E+02  -.14954E+02
   .89000E+01   .93281E+02  -.14828E+02
   .89500E+01   .93311E+02  -.14705E+02
   .90000E+01   .93340E+02  -.14583E+02
   .90700E+01   .93379E+02  -.14414E+02
   .91500E+01   .93418E+02  -.14222E+02
   .92200E+01   .93450E+02  -.14060E+02
   .93000E+01   .93484E+02  -.13876E+02
   .93500E+01   .93503E+02  -.13764E+02
   .94000E+01   .93522E+02  -.13653E+02
   .95000E+01   .93555E+02  -.13436E+02
   .95700E+01   .93576E+02  -.13290E+02
   .96500E+01   .93599E+02  -.13123E+02
   .97200E+01   .93617E+02  -.12982E+02
   .98000E+01   .93636E+02  -.12821E+02
   .99000E+01   .93657E+02  -.12627E+02
   .10000E+02   .93675E+02  -.12438E+02
   .10150E+02   .93699E+02  -.12163E+02
   .10300E+02   .93718E+02  -.11899E+02
   .10450E+02   .93733E+02  -.11644E+02
   .10600E+02   .93744E+02  -.11396E+02
   .10750E+02   .93752E+02  -.11158E+02
   .10830E+02   .93756E+02  -.11034E+02
   .10900E+02   .93758E+02  -.10926E+02
   .11000E+02   .93758E+02  -.10776E+02
   .11100E+02   .93757E+02  -.10627E+02
   .11160E+02   .93756E+02  -.10540E+02
   .11220E+02   .93755E+02  -.10454E+02
   .11360E+02   .93749E+02  -.10256E+02
   .11500E+02   .93739E+02  -.10064E+02
   .11650E+02   .93726E+02  -.98647E+01
   .11800E+02   .93709E+02  -.96720E+01
   .11950E+02   .93689E+02  -.94854E+01
   .12100E+02   .93668E+02  -.93046E+01
   .12200E+02   .93652E+02  -.91885E+01
   .12300E+02   .93635E+02  -.90723E+01
   .12600E+02   .93579E+02  -.87437E+01
   .12800E+02   .93538E+02  -.85353E+01
   .13100E+02   .93473E+02  -.82372E+01
   .13332E+02   .93418E+02  -.80171E+01
   .13600E+02   .93350E+02  -.77751E+01
   .13800E+02   .93296E+02  -.76021E+01
   .14000E+02   .93240E+02  -.74353E+01
   .14200E+02   .93181E+02  -.72725E+01
   .14400E+02   .93118E+02  -.71154E+01
   .14600E+02   .93053E+02  -.69638E+01
   .14800E+02   .92984E+02  -.68175E+01
   .15000E+02   .92912E+02  -.66761E+01
   .15150E+02   .92856E+02  -.65741E+01
   .15300E+02   .92798E+02  -.64721E+01
   .15450E+02   .92738E+02  -.63751E+01
   .15600E+02   .92676E+02  -.62782E+01
   .15750E+02   .92611E+02  -.61859E+01
   .15900E+02   .92545E+02  -.60936E+01
   .16050E+02   .92476E+02  -.60057E+01
   .16200E+02   .92404E+02  -.59178E+01
   .16350E+02   .92329E+02  -.58340E+01
   .16500E+02   .92252E+02  -.57503E+01
   .16650E+02   .92171E+02  -.56703E+01
   .16800E+02   .92087E+02  -.55904E+01
   .16950E+02   .91999E+02  -.55138E+01
   .17100E+02   .91907E+02  -.54372E+01
   .17300E+02   .91777E+02  -.53396E+01
   .17479E+02   .91652E+02  -.52523E+01
   .17600E+02   .91562E+02  -.51962E+01
   .17700E+02   .91484E+02  -.51499E+01
   .17800E+02   .91403E+02  -.51035E+01
   .17880E+02   .91336E+02  -.50681E+01
   .17950E+02   .91275E+02  -.50371E+01
   .18020E+02   .91211E+02  -.50061E+01
   .18100E+02   .91136E+02  -.49707E+01
   .18180E+02   .91058E+02  -.49367E+01
   .18250E+02   .90986E+02  -.49070E+01
   .18320E+02   .90912E+02  -.48773E+01
   .18400E+02   .90822E+02  -.48434E+01
   .18470E+02   .90740E+02  -.48149E+01
   .18550E+02   .90642E+02  -.47823E+01
   .18630E+02   .90537E+02  -.47498E+01
   .18700E+02   .90441E+02  -.47213E+01
   .18780E+02   .90323E+02  -.46901E+01
   .18850E+02   .90213E+02  -.46627E+01
   .18930E+02   .90078E+02  -.46315E+01
   .19000E+02   .89951E+02  -.46041E+01
   .19070E+02   .89814E+02  -.45779E+01
   .19110E+02   .89730E+02  -.45629E+01
   .19150E+02   .89642E+02  -.45479E+01
   .19190E+02   .89549E+02  -.45329E+01
   .19230E+02   .89451E+02  -.45179E+01
   .19270E+02   .89347E+02  -.45029E+01
   .19300E+02   .89265E+02  -.44917E+01
   .19340E+02   .89148E+02  -.44773E+01
   .19380E+02   .89023E+02  -.44629E+01
   .19410E+02   .88923E+02  -.44521E+01
   .19450E+02   .88780E+02  -.44377E+01
   .19480E+02   .88664E+02  -.44269E+01
   .19500E+02   .88582E+02  -.44197E+01
   .19520E+02   .88495E+02  -.44125E+01
   .19540E+02   .88405E+02  -.44053E+01
   .19560E+02   .88309E+02  -.43981E+01
   .19580E+02   .88207E+02  -.43909E+01
   .19600E+02   .88099E+02  -.43837E+01
   .19620E+02   .87984E+02  -.43767E+01
   .19640E+02   .87861E+02  -.43698E+01
   .19660E+02   .87728E+02  -.43629E+01
   .19680E+02   .87584E+02  -.43560E+01
   .19700E+02   .87426E+02  -.43491E+01
   .19720E+02   .87253E+02  -.43422E+01
   .19730E+02   .87159E+02  -.43387E+01
   .19740E+02   .87060E+02  -.43352E+01
   .19750E+02   .86955E+02  -.43318E+01
   .19760E+02   .86844E+02  -.43283E+01
   .19770E+02   .86725E+02  -.43249E+01
   .19780E+02   .86597E+02  -.43214E+01
   .19790E+02   .86459E+02  -.43179E+01
   .19800E+02   .86309E+02  -.43145E+01
   .19810E+02   .86145E+02  -.43110E+01
   .19820E+02   .85964E+02  -.43076E+01
   .19830E+02   .85763E+02  -.43041E+01
   .19835E+02   .85653E+02  -.43024E+01
   .19840E+02   .85536E+02  -.43007E+01
   .19845E+02   .85411E+02  -.42989E+01
   .19850E+02   .85276E+02  -.42972E+01
   .19855E+02   .85131E+02  -.42955E+01
   .19860E+02   .84973E+02  -.42937E+01
   .19865E+02   .84799E+02  -.42920E+01
   .19870E+02   .84607E+02  -.42903E+01
   .19875E+02   .84393E+02  -.42885E+01
   .19880E+02   .84151E+02  -.42868E+01
   .19882E+02   .84045E+02  -.42861E+01
   .19885E+02   .83873E+02  -.42851E+01
   .19888E+02   .83684E+02  -.42841E+01
   .19890E+02   .83547E+02  -.42834E+01
   .19893E+02   .83320E+02  -.42823E+01
   .19895E+02   .83153E+02  -.42816E+01
   .19898E+02   .82872E+02  -.42806E+01
   .19900E+02   .82660E+02  -.42799E+01
   .19902E+02   .82423E+02  -.42792E+01
   .19904E+02   .82155E+02  -.42785E+01
   .19906E+02   .81847E+02  -.42778E+01
   .19908E+02   .81485E+02  -.42771E+01
   .19910E+02   .81051E+02  -.42765E+01
   .19911E+02   .80796E+02  -.42761E+01
   .19912E+02   .80508E+02  -.42758E+01
   .19913E+02   .80177E+02  -.42754E+01
   .19914E+02   .79784E+02  -.42751E+01
   .19915E+02   .79235E+02  -.42747E+01
   .19916E+02   .78368E+02  -.42743E+01
   .19916E+02   .78396E+02  -.45826E+01
   .19916E+02   .78422E+02  -.48908E+01
   .19917E+02   .78464E+02  -.55073E+01
   .19917E+02   .78493E+02  -.42741E+01
   .19917E+02   .77627E+02  -.42739E+01
   .19918E+02   .76047E+02  -.42737E+01
   .19918E+02   .77799E+02  -.10858E+02
   .19919E+02   .79523E+02  -.42735E+01
   .19919E+02   .77641E+02  -.42733E+01
   .19920E+02   .76400E+02  -.42730E+01
   .19921E+02   .75090E+02  -.42728E+01
   .19921E+02   .73405E+02  -.42726E+01
   .19922E+02   .71333E+02  -.42723E+01
   .19922E+02   .69930E+02  -.42722E+01
   .19923E+02   .67394E+02  -.42721E+01
   .19923E+02   .64651E+02  -.42720E+01
   .19923E+02   .58723E+02  -.42719E+01
   .19924E+02   .50308E+02  -.42718E+01
   .19924E+02   .30819E+02  -.42716E+01
   .19924E+02   .46505E+02  -.85080E+02
   .19924E+02   .71801E+02  -.16589E+03
   .19925E+02   .12209E+03  -.42714E+01
   .19925E+02   .10043E+03  -.42713E+01
   .19926E+02   .90020E+02  -.42712E+01
   .19926E+02   .89752E+02  -.15162E+02
   .19926E+02   .90144E+02  -.26053E+02
   .19926E+02   .90331E+02  -.18793E+02
   .19926E+02   .90362E+02  -.42709E+01
   .19926E+02   .90552E+02  -.42709E+01
   .19927E+02   .89487E+02  -.20977E+02
   .19927E+02   .89848E+02  -.42708E+01
   .19927E+02   .90374E+02  -.42707E+01
   .19927E+02   .91984E+02  -.42706E+01
   .19927E+02   .91339E+02  -.79470E+01
   .19927E+02   .86713E+02  -.42705E+01
   .19928E+02   .82975E+02  -.63306E+01
   .19928E+02   .81878E+02  -.82389E+01
   .19928E+02   .81943E+02  -.10722E+02
   .19928E+02   .82434E+02  -.12155E+02
   .19929E+02   .83381E+02  -.11999E+02
   .19929E+02   .84202E+02  -.11846E+02
   .19929E+02   .84441E+02  -.11693E+02
   .19929E+02   .84580E+02  -.11576E+02
   .19930E+02   .84693E+02  -.11401E+02
   .19930E+02   .84736E+02  -.11285E+02
   .19930E+02   .84767E+02  -.11155E+02
   .19930E+02   .84768E+02  -.11026E+02
   .19931E+02   .84763E+02  -.10950E+02
   .19931E+02   .84740E+02  -.10851E+02
   .19931E+02   .84727E+02  -.10785E+02
   .19931E+02   .84710E+02  -.10735E+02
   .19931E+02   .84691E+02  -.10685E+02
   .19932E+02   .84654E+02  -.10585E+02
   .19932E+02   .84626E+02  -.10528E+02
   .19933E+02   .84587E+02  -.10452E+02
   .19933E+02   .84561E+02  -.10408E+02
   .19933E+02   .84526E+02  -.10349E+02
   .19934E+02   .84495E+02  -.10304E+02
   .19934E+02   .84468E+02  -.10259E+02
   .19934E+02   .84441E+02  -.10224E+02
   .19935E+02   .84425E+02  -.10199E+02
   .19935E+02   .84387E+02  -.10147E+02
   .19936E+02   .84362E+02  -.10112E+02
   .19937E+02   .84342E+02  -.10083E+02
   .19938E+02   .84332E+02  -.10064E+02
   .19938E+02   .84327E+02  -.10048E+02
   .19939E+02   .84329E+02  -.10040E+02
   .19940E+02   .84336E+02  -.10031E+02
   .19941E+02   .84364E+02  -.10026E+02
   .19943E+02   .84406E+02  -.10020E+02
   .19944E+02   .84438E+02  -.10019E+02
   .19945E+02   .84474E+02  -.10018E+02
   .19948E+02   .84590E+02  -.10009E+02
   .19950E+02   .84673E+02  -.10004E+02
   .19953E+02   .84796E+02  -.99833E+01
   .19955E+02   .84873E+02  -.99697E+01
   .19958E+02   .84983E+02  -.99449E+01
   .19960E+02   .85050E+02  -.99284E+01
   .19962E+02   .85113E+02  -.99136E+01
   .19965E+02   .85201E+02  -.98914E+01
   .19968E+02   .85281E+02  -.98759E+01
   .19970E+02   .85331E+02  -.98655E+01
   .19973E+02   .85403E+02  -.98572E+01
   .19975E+02   .85449E+02  -.98517E+01
   .19980E+02   .85560E+02  -.98480E+01
   .19985E+02   .85669E+02  -.98507E+01
   .19990E+02   .85777E+02  -.98560E+01
   .19995E+02   .85883E+02  -.98610E+01
   .19998E+02   .85946E+02  -.98628E+01
   .19999E+02   .85967E+02  -.98634E+01
   .20000E+02   .85989E+02  -.98640E+01
   .20008E+02   .86146E+02  -.98588E+01
   .20015E+02   .86271E+02  -.98543E+01
   .20023E+02   .86405E+02  -.98491E+01
   .20030E+02   .86515E+02  -.98446E+01
   .20040E+02   .86662E+02  -.98381E+01
   .20050E+02   .86798E+02  -.98316E+01
   .20060E+02   .86925E+02  -.98251E+01
   .20070E+02   .87044E+02  -.98187E+01
   .20080E+02   .87156E+02  -.98122E+01
   .20090E+02   .87263E+02  -.98057E+01
   .20100E+02   .87364E+02  -.97992E+01
   .20110E+02   .87460E+02  -.97928E+01
   .20120E+02   .87551E+02  -.97863E+01
   .20130E+02   .87638E+02  -.97798E+01
   .20150E+02   .87800E+02  -.97669E+01
   .20170E+02   .87950E+02  -.97522E+01
   .20190E+02   .88089E+02  -.97375E+01
   .20210E+02   .88219E+02  -.97229E+01
   .20230E+02   .88341E+02  -.97082E+01
   .20250E+02   .88454E+02  -.96935E+01
   .20270E+02   .88562E+02  -.96789E+01
   .20285E+02   .88639E+02  -.96679E+01
   .20300E+02   .88713E+02  -.96569E+01
   .20320E+02   .88807E+02  -.96414E+01
   .20340E+02   .88896E+02  -.96259E+01
   .20360E+02   .88981E+02  -.96104E+01
   .20380E+02   .89062E+02  -.95949E+01
   .20410E+02   .89178E+02  -.95717E+01
   .20450E+02   .89321E+02  -.95407E+01
   .20480E+02   .89421E+02  -.95179E+01
   .20520E+02   .89546E+02  -.94875E+01
   .20560E+02   .89663E+02  -.94572E+01
   .20600E+02   .89772E+02  -.94268E+01
   .20640E+02   .89874E+02  -.93976E+01
   .20680E+02   .89971E+02  -.93684E+01
   .20720E+02   .90063E+02  -.93392E+01
   .20750E+02   .90129E+02  -.93172E+01
   .20780E+02   .90192E+02  -.92953E+01
   .20820E+02   .90274E+02  -.92661E+01
   .20860E+02   .90351E+02  -.92369E+01
   .20900E+02   .90424E+02  -.92077E+01
   .20950E+02   .90511E+02  -.91712E+01
   .21000E+02   .90592E+02  -.91346E+01
   .21050E+02   .90670E+02  -.90981E+01
   .21100E+02   .90743E+02  -.90616E+01
   .21180E+02   .90853E+02  -.90040E+01
   .21250E+02   .90943E+02  -.89536E+01
   .21320E+02   .91026E+02  -.89032E+01
   .21400E+02   .91113E+02  -.88456E+01
   .21450E+02   .91164E+02  -.88109E+01
   .21500E+02   .91212E+02  -.87763E+01
   .21600E+02   .91301E+02  -.87070E+01
   .21680E+02   .91367E+02  -.86542E+01
   .21750E+02   .91422E+02  -.86080E+01
   .21820E+02   .91472E+02  -.85618E+01
   .21900E+02   .91526E+02  -.85090E+01
   .21960E+02   .91564E+02  -.84707E+01
   .22030E+02   .91606E+02  -.84261E+01
   .22163E+02   .91677E+02  -.83412E+01
   .22220E+02   .91705E+02  -.83057E+01
   .22280E+02   .91733E+02  -.82683E+01
   .22400E+02   .91782E+02  -.81943E+01
   .22490E+02   .91815E+02  -.81398E+01
   .22540E+02   .91831E+02  -.81095E+01
   .22583E+02   .91844E+02  -.80835E+01
   .22640E+02   .91860E+02  -.80499E+01
   .22700E+02   .91876E+02  -.80146E+01
   .22800E+02   .91898E+02  -.79558E+01
   .22900E+02   .91917E+02  -.78969E+01
   .22970E+02   .91927E+02  -.78563E+01
   .23050E+02   .91937E+02  -.78099E+01
   .23130E+02   .91943E+02  -.77635E+01
   .23200E+02   .91946E+02  -.77229E+01
   .23300E+02   .91946E+02  -.76667E+01
   .23400E+02   .91941E+02  -.76104E+01
   .23500E+02   .91930E+02  -.75541E+01
   .23600E+02   .91915E+02  -.74978E+01
   .23680E+02   .91898E+02  -.74545E+01
   .23750E+02   .91880E+02  -.74166E+01
   .23820E+02   .91859E+02  -.73787E+01
   .23900E+02   .91831E+02  -.73354E+01
   .24000E+02   .91790E+02  -.72835E+01
   .24100E+02   .91740E+02  -.72315E+01
   .24150E+02   .91711E+02  -.72056E+01
   .24200E+02   .91680E+02  -.71796E+01
   .24250E+02   .91647E+02  -.71537E+01
   .24300E+02   .91611E+02  -.71277E+01
   .24380E+02   .91546E+02  -.70879E+01
   .24450E+02   .91481E+02  -.70530E+01
   .24480E+02   .91451E+02  -.70381E+01
   .24520E+02   .91408E+02  -.70181E+01
   .24560E+02   .91362E+02  -.69982E+01
   .24600E+02   .91312E+02  -.69783E+01
   .24640E+02   .91258E+02  -.69590E+01
   .24680E+02   .91199E+02  -.69398E+01
   .24720E+02   .91135E+02  -.69205E+01
   .24750E+02   .91083E+02  -.69060E+01
   .24780E+02   .91028E+02  -.68916E+01
   .24820E+02   .90947E+02  -.68723E+01
   .24860E+02   .90856E+02  -.68531E+01
   .24880E+02   .90807E+02  -.68434E+01
   .24900E+02   .90755E+02  -.68338E+01
   .24920E+02   .90699E+02  -.68245E+01
   .24950E+02   .90608E+02  -.68105E+01
   .24970E+02   .90541E+02  -.68012E+01
   .25000E+02   .90431E+02  -.67873E+01
   .25020E+02   .90349E+02  -.67780E+01
   .25035E+02   .90281E+02  -.67710E+01
   .25050E+02   .90209E+02  -.67640E+01
   .25060E+02   .90157E+02  -.67594E+01
   .25070E+02   .90102E+02  -.67547E+01
   .25085E+02   .90012E+02  -.67477E+01
   .25100E+02   .89913E+02  -.67407E+01
   .25110E+02   .89841E+02  -.67361E+01
   .25120E+02   .89762E+02  -.67315E+01
   .25130E+02   .89676E+02  -.67268E+01
   .25140E+02   .89580E+02  -.67221E+01
   .25148E+02   .89497E+02  -.67184E+01
   .25155E+02   .89417E+02  -.67152E+01
   .25163E+02   .89316E+02  -.67114E+01
   .25170E+02   .89218E+02  -.67082E+01
   .25178E+02   .89093E+02  -.67045E+01
   .25185E+02   .88967E+02  -.67012E+01
   .25189E+02   .88887E+02  -.66993E+01
   .25193E+02   .88800E+02  -.66975E+01
   .25196E+02   .88730E+02  -.66961E+01
   .25200E+02   .88627E+02  -.66942E+01
   .25205E+02   .88481E+02  -.66919E+01
   .25208E+02   .88382E+02  -.66905E+01
   .25210E+02   .88310E+02  -.66896E+01
   .25213E+02   .88192E+02  -.66882E+01
   .25215E+02   .88105E+02  -.66873E+01
   .25218E+02   .87959E+02  -.66859E+01
   .25220E+02   .87849E+02  -.66849E+01
   .25222E+02   .87727E+02  -.66840E+01
   .25225E+02   .87514E+02  -.66826E+01
   .25227E+02   .87346E+02  -.66817E+01
   .25229E+02   .87149E+02  -.66807E+01
   .25230E+02   .86976E+02  -.66800E+01
   .25232E+02   .86775E+02  -.66793E+01
   .25233E+02   .86620E+02  -.66789E+01
   .25234E+02   .86442E+02  -.66784E+01
   .25235E+02   .86235E+02  -.66779E+01
   .25236E+02   .85982E+02  -.66775E+01
   .25237E+02   .85605E+02  -.66770E+01
   .25238E+02   .84737E+02  -.66765E+01
   .25238E+02   .84859E+02  -.71751E+01
   .25238E+02   .84981E+02  -.76738E+01
   .25239E+02   .85342E+02  -.91698E+01
   .25239E+02   .85927E+02  -.66760E+01
   .25240E+02   .85004E+02  -.66756E+01
   .25241E+02   .84343E+02  -.66752E+01
   .25242E+02   .83748E+02  -.66749E+01
   .25243E+02   .82873E+02  -.66745E+01
   .25243E+02   .82445E+02  -.66744E+01
   .25243E+02   .81773E+02  -.66742E+01
   .25244E+02   .80920E+02  -.66740E+01
   .25244E+02   .79787E+02  -.66738E+01
   .25244E+02   .78194E+02  -.66736E+01
   .25245E+02   .75755E+02  -.66735E+01
   .25245E+02   .71471E+02  -.66733E+01
   .25246E+02   .57533E+02  -.66730E+01
   .25246E+02   .63051E+02  -.24441E+02
   .25246E+02   .68567E+02  -.42208E+02
   .25246E+02   .85084E+02  -.95511E+02
   .25247E+02   .11246E+03  -.66726E+01
   .25247E+02   .99666E+02  -.66724E+01
   .25248E+02   .92272E+02  -.66722E+01
   .25248E+02   .90445E+02  -.14174E+02
   .25248E+02   .89496E+02  -.78732E+01
   .25249E+02   .89770E+02  -.81259E+01
   .25249E+02   .90261E+02  -.83868E+01
   .25249E+02   .90540E+02  -.16387E+02
   .25249E+02   .92349E+02  -.10157E+02
   .25250E+02   .91550E+02  -.10075E+02
   .25250E+02   .90966E+02  -.10002E+02
   .25251E+02   .90591E+02  -.99449E+01
   .25251E+02   .90323E+02  -.98882E+01
   .25251E+02   .90068E+02  -.98402E+01
   .25252E+02   .89875E+02  -.97922E+01
   .25253E+02   .89721E+02  -.97593E+01
   .25253E+02   .89596E+02  -.97264E+01
   .25253E+02   .89493E+02  -.97040E+01
   .25254E+02   .89407E+02  -.96817E+01
   .25254E+02   .89334E+02  -.96666E+01
   .25255E+02   .89272E+02  -.96516E+01
   .25256E+02   .89220E+02  -.96418E+01
   .25256E+02   .89175E+02  -.96321E+01
   .25257E+02   .89105E+02  -.96198E+01
   .25258E+02   .89055E+02  -.96126E+01
   .25259E+02   .89019E+02  -.96088E+01
   .25260E+02   .88996E+02  -.96080E+01
   .25261E+02   .88982E+02  -.96072E+01
   .25263E+02   .88974E+02  -.96077E+01
   .25265E+02   .88985E+02  -.96081E+01
   .25267E+02   .89005E+02  -.96029E+01
   .25269E+02   .89029E+02  -.95976E+01
   .25271E+02   .89057E+02  -.95923E+01
   .25273E+02   .89088E+02  -.95870E+01
   .25274E+02   .89112E+02  -.95796E+01
   .25276E+02   .89134E+02  -.95722E+01
   .25278E+02   .89163E+02  -.95623E+01
   .25280E+02   .89190E+02  -.95524E+01
   .25282E+02   .89216E+02  -.95446E+01
   .25284E+02   .89241E+02  -.95368E+01
   .25286E+02   .89265E+02  -.95289E+01
   .25288E+02   .89286E+02  -.95211E+01
   .25292E+02   .89328E+02  -.95139E+01
   .25295E+02   .89358E+02  -.95084E+01
   .25299E+02   .89398E+02  -.95075E+01
   .25303E+02   .89438E+02  -.95066E+01
   .25310E+02   .89508E+02  -.95087E+01
   .25318E+02   .89587E+02  -.95080E+01
   .25325E+02   .89654E+02  -.95075E+01
   .25333E+02   .89725E+02  -.95019E+01
   .25340E+02   .89781E+02  -.94970E+01
   .25348E+02   .89841E+02  -.94923E+01
   .25355E+02   .89891E+02  -.94882E+01
   .25363E+02   .89944E+02  -.94835E+01
   .25370E+02   .89988E+02  -.94794E+01
   .25378E+02   .90035E+02  -.94757E+01
   .25385E+02   .90075E+02  -.94725E+01
   .25400E+02   .90155E+02  -.94656E+01
   .25415E+02   .90228E+02  -.94587E+01
   .25430E+02   .90296E+02  -.94518E+01
   .25450E+02   .90378E+02  -.94416E+01
   .25470E+02   .90452E+02  -.94314E+01
   .25485E+02   .90504E+02  -.94238E+01
   .25500E+02   .90553E+02  -.94162E+01
   .25520E+02   .90612E+02  -.94047E+01
   .25550E+02   .90692E+02  -.93875E+01
   .25570E+02   .90740E+02  -.93761E+01
   .25590E+02   .90784E+02  -.93647E+01
   .25610E+02   .90824E+02  -.93535E+01
   .25630E+02   .90861E+02  -.93423E+01
   .25650E+02   .90895E+02  -.93311E+01
   .25677E+02   .90936E+02  -.93159E+01
   .25700E+02   .90967E+02  -.93029E+01
   .25730E+02   .91002E+02  -.92859E+01
   .25760E+02   .91030E+02  -.92689E+01
   .25790E+02   .91052E+02  -.92519E+01
   .25810E+02   .91062E+02  -.92406E+01
   .25840E+02   .91072E+02  -.92235E+01
   .25870E+02   .91074E+02  -.92065E+01
   .25900E+02   .91066E+02  -.91895E+01
   .25920E+02   .91054E+02  -.91784E+01
   .25935E+02   .91042E+02  -.91701E+01
   .25950E+02   .91025E+02  -.91618E+01
   .25960E+02   .91011E+02  -.91563E+01
   .25970E+02   .90995E+02  -.91508E+01
   .25985E+02   .90966E+02  -.91425E+01
   .26000E+02   .90930E+02  -.91342E+01
   .26010E+02   .90900E+02  -.91286E+01
   .26020E+02   .90865E+02  -.91231E+01
   .26028E+02   .90832E+02  -.91187E+01
   .26035E+02   .90799E+02  -.91148E+01
   .26043E+02   .90755E+02  -.91104E+01
   .26050E+02   .90710E+02  -.91065E+01
   .26057E+02   .90658E+02  -.91026E+01
   .26061E+02   .90623E+02  -.91004E+01
   .26065E+02   .90584E+02  -.90982E+01
   .26069E+02   .90541E+02  -.90960E+01
   .26073E+02   .90491E+02  -.90938E+01
   .26077E+02   .90433E+02  -.90915E+01
   .26080E+02   .90382E+02  -.90899E+01
   .26083E+02   .90325E+02  -.90882E+01
   .26086E+02   .90257E+02  -.90866E+01
   .26089E+02   .90175E+02  -.90849E+01
   .26090E+02   .90127E+02  -.90841E+01
   .26092E+02   .90073E+02  -.90832E+01
   .26094E+02   .90010E+02  -.90824E+01
   .26095E+02   .89938E+02  -.90816E+01
   .26097E+02   .89852E+02  -.90808E+01
   .26098E+02   .89744E+02  -.90799E+01
   .26099E+02   .89675E+02  -.90795E+01
   .26100E+02   .89605E+02  -.90791E+01
   .26100E+02   .89511E+02  -.90787E+01
   .26101E+02   .89410E+02  -.90783E+01
   .26101E+02   .89323E+02  -.90780E+01
   .26102E+02   .89220E+02  -.90777E+01
   .26103E+02   .89093E+02  -.90774E+01
   .26103E+02   .88929E+02  -.90772E+01
   .26104E+02   .88705E+02  -.90769E+01
   .26104E+02   .88366E+02  -.90766E+01
   .26104E+02   .87755E+02  -.90763E+01
   .26105E+02   .86443E+02  -.90760E+01
   .26105E+02   .86956E+02  -.10873E+02
   .26105E+02   .87465E+02  -.12671E+02
   .26105E+02   .88989E+02  -.18063E+02
   .26106E+02   .91435E+02  -.90755E+01
   .26106E+02   .90242E+02  -.90753E+01
   .26107E+02   .89317E+02  -.90752E+01
   .26107E+02   .89015E+02  -.11534E+02
   .26107E+02   .88877E+02  -.94670E+01
   .26108E+02   .89210E+02  -.96605E+01
   .26108E+02   .89431E+02  -.98580E+01
   .26108E+02   .89574E+02  -.12251E+02
   .26108E+02   .90238E+02  -.10516E+02
   .26109E+02   .90186E+02  -.10514E+02
   .26109E+02   .90120E+02  -.10512E+02
   .26109E+02   .90089E+02  -.10510E+02
   .26110E+02   .90073E+02  -.10507E+02
   .26110E+02   .90071E+02  -.10505E+02
   .26110E+02   .90075E+02  -.10502E+02
   .26111E+02   .90081E+02  -.10500E+02
   .26111E+02   .90089E+02  -.10498E+02
   .26111E+02   .90100E+02  -.10496E+02
   .26112E+02   .90114E+02  -.10493E+02
   .26112E+02   .90124E+02  -.10491E+02
   .26112E+02   .90138E+02  -.10488E+02
   .26113E+02   .90162E+02  -.10484E+02
   .26114E+02   .90189E+02  -.10479E+02
   .26115E+02   .90212E+02  -.10476E+02
   .26115E+02   .90237E+02  -.10472E+02
   .26116E+02   .90262E+02  -.10469E+02
   .26117E+02   .90282E+02  -.10466E+02
   .26118E+02   .90311E+02  -.10461E+02
   .26119E+02   .90337E+02  -.10457E+02
   .26121E+02   .90371E+02  -.10454E+02
   .26122E+02   .90404E+02  -.10451E+02
   .26124E+02   .90436E+02  -.10448E+02
   .26125E+02   .90466E+02  -.10444E+02
   .26126E+02   .90494E+02  -.10442E+02
   .26128E+02   .90520E+02  -.10440E+02
   .26130E+02   .90552E+02  -.10436E+02
   .26133E+02   .90596E+02  -.10437E+02
   .26135E+02   .90625E+02  -.10437E+02
   .26140E+02   .90692E+02  -.10438E+02
   .26145E+02   .90753E+02  -.10437E+02
   .26150E+02   .90808E+02  -.10436E+02
   .26155E+02   .90859E+02  -.10433E+02
   .26160E+02   .90908E+02  -.10431E+02
   .26165E+02   .90954E+02  -.10428E+02
   .26170E+02   .90995E+02  -.10426E+02
   .26178E+02   .91055E+02  -.10421E+02
   .26185E+02   .91102E+02  -.10416E+02
   .26193E+02   .91152E+02  -.10411E+02
   .26200E+02   .91194E+02  -.10406E+02
   .26210E+02   .91250E+02  -.10401E+02
   .26220E+02   .91302E+02  -.10395E+02
   .26235E+02   .91374E+02  -.10386E+02
   .26250E+02   .91439E+02  -.10377E+02
   .26265E+02   .91500E+02  -.10369E+02
   .26280E+02   .91557E+02  -.10360E+02
   .26300E+02   .91628E+02  -.10349E+02
   .26320E+02   .91694E+02  -.10337E+02
   .26350E+02   .91786E+02  -.10320E+02
   .26370E+02   .91843E+02  -.10309E+02
   .26400E+02   .91923E+02  -.10292E+02
   .26420E+02   .91974E+02  -.10280E+02
   .26450E+02   .92046E+02  -.10263E+02
   .26470E+02   .92091E+02  -.10251E+02
   .26500E+02   .92157E+02  -.10234E+02
   .26530E+02   .92219E+02  -.10217E+02
   .26570E+02   .92298E+02  -.10194E+02
   .26610E+02   .92373E+02  -.10171E+02
   .26650E+02   .92445E+02  -.10149E+02
   .26690E+02   .92512E+02  -.10126E+02
   .26730E+02   .92577E+02  -.10103E+02
   .26770E+02   .92639E+02  -.10080E+02
   .26800E+02   .92684E+02  -.10062E+02
   .26880E+02   .92798E+02  -.10017E+02
   .26950E+02   .92891E+02  -.99780E+01
   .27020E+02   .92979E+02  -.99386E+01
   .27100E+02   .93074E+02  -.98935E+01
   .27200E+02   .93185E+02  -.98408E+01
   .27300E+02   .93290E+02  -.97880E+01
   .27390E+02   .93379E+02  -.97406E+01
   .27470E+02   .93455E+02  -.96984E+01
   .27540E+02   .93520E+02  -.96627E+01
   .27600E+02   .93573E+02  -.96322E+01
   .27700E+02   .93659E+02  -.95812E+01
   .27800E+02   .93740E+02  -.95303E+01
   .27880E+02   .93803E+02  -.94895E+01
   .27950E+02   .93857E+02  -.94539E+01
   .28020E+02   .93909E+02  -.94182E+01
   .28100E+02   .93966E+02  -.93775E+01
   .28180E+02   .94022E+02  -.93384E+01
   .28250E+02   .94069E+02  -.93042E+01
   .28320E+02   .94115E+02  -.92700E+01
   .28400E+02   .94166E+02  -.92310E+01
   .28550E+02   .94258E+02  -.91577E+01
   .28630E+02   .94305E+02  -.91186E+01
   .28700E+02   .94345E+02  -.90844E+01
   .28800E+02   .94401E+02  -.90380E+01
   .28900E+02   .94455E+02  -.89916E+01
   .29000E+02   .94507E+02  -.89451E+01
   .29100E+02   .94559E+02  -.88986E+01
   .29180E+02   .94598E+02  -.88615E+01
   .29250E+02   .94632E+02  -.88290E+01
   .29400E+02   .94702E+02  -.87593E+01
   .29550E+02   .94769E+02  -.86922E+01
   .29700E+02   .94834E+02  -.86251E+01
   .29850E+02   .94895E+02  -.85597E+01
   .29920E+02   .94924E+02  -.85292E+01
   .30000E+02   .94955E+02  -.84944E+01
   .30100E+02   .94994E+02  -.84513E+01
   .30200E+02   .95031E+02  -.84082E+01
   .30300E+02   .95068E+02  -.83651E+01
   .30400E+02   .95103E+02  -.83220E+01
   .30500E+02   .95137E+02  -.82803E+01
   .30600E+02   .95171E+02  -.82386E+01
   .30700E+02   .95203E+02  -.81969E+01
   .30800E+02   .95235E+02  -.81552E+01
   .30900E+02   .95266E+02  -.81149E+01
   .31000E+02   .95296E+02  -.80746E+01
   .31100E+02   .95325E+02  -.80343E+01
   .31200E+02   .95354E+02  -.79939E+01
   .31350E+02   .95396E+02  -.79352E+01
   .31500E+02   .95436E+02  -.78764E+01
   .31700E+02   .95488E+02  -.78002E+01
   .31900E+02   .95537E+02  -.77240E+01
   .32100E+02   .95584E+02  -.76502E+01
   .32300E+02   .95629E+02  -.75764E+01
   .32450E+02   .95661E+02  -.75226E+01
   .32600E+02   .95692E+02  -.74688E+01
   .32800E+02   .95732E+02  -.73989E+01
   .33000E+02   .95771E+02  -.73291E+01
   .33200E+02   .95808E+02  -.72617E+01
   .33400E+02   .95843E+02  -.71942E+01
   .33600E+02   .95877E+02  -.71288E+01
   .33800E+02   .95910E+02  -.70634E+01
   .33950E+02   .95933E+02  -.70163E+01
   .34100E+02   .95956E+02  -.69693E+01
   .34300E+02   .95986E+02  -.69065E+01
   .34500E+02   .96015E+02  -.68437E+01
   .34700E+02   .96042E+02  -.67843E+01
   .34900E+02   .96068E+02  -.67249E+01
   .35100E+02   .96094E+02  -.66655E+01
   .35300E+02   .96118E+02  -.66061E+01
   .35500E+02   .96142E+02  -.65499E+01
   .35700E+02   .96165E+02  -.64936E+01
   .35900E+02   .96187E+02  -.64374E+01
   .36030E+02   .96201E+02  -.64009E+01
   .36160E+02   .96215E+02  -.63658E+01
   .36300E+02   .96229E+02  -.63281E+01
   .36400E+02   .96240E+02  -.63012E+01
   .36500E+02   .96250E+02  -.62743E+01
   .36650E+02   .96265E+02  -.62345E+01
   .36800E+02   .96279E+02  -.61947E+01
   .36900E+02   .96288E+02  -.61681E+01
   .37000E+02   .96297E+02  -.61416E+01
   .37150E+02   .96310E+02  -.61032E+01
   .37300E+02   .96323E+02  -.60647E+01
   .37400E+02   .96331E+02  -.60391E+01
   .37500E+02   .96339E+02  -.60135E+01
   .37650E+02   .96351E+02  -.59763E+01
   .37800E+02   .96363E+02  -.59392E+01
   .37900E+02   .96370E+02  -.59144E+01
   .38000E+02   .96378E+02  -.58897E+01
   .38150E+02   .96389E+02  -.58534E+01
   .38300E+02   .96400E+02  -.58171E+01
   .38400E+02   .96406E+02  -.57929E+01
   .38500E+02   .96413E+02  -.57687E+01
   .38650E+02   .96423E+02  -.57336E+01
   .38800E+02   .96432E+02  -.56985E+01
   .38900E+02   .96438E+02  -.56750E+01
   .39000E+02   .96444E+02  -.56516E+01
   .39150E+02   .96453E+02  -.56177E+01
   .39300E+02   .96461E+02  -.55838E+01
   .39400E+02   .96467E+02  -.55611E+01
   .39500E+02   .96472E+02  -.55385E+01
   .39800E+02   .96488E+02  -.54728E+01
   .39900E+02   .96493E+02  -.54509E+01
   .40000E+02   .96498E+02  -.54290E+01
   .40200E+02   .96507E+02  -.53867E+01
   .40400E+02   .96516E+02  -.53443E+01
   .40600E+02   .96525E+02  -.53019E+01
   .40800E+02   .96533E+02  -.52595E+01
   .40950E+02   .96539E+02  -.52292E+01
   .41100E+02   .96545E+02  -.51990E+01
   .41300E+02   .96552E+02  -.51586E+01
   .41500E+02   .96559E+02  -.51182E+01
   .41700E+02   .96565E+02  -.50796E+01
   .41900E+02   .96572E+02  -.50411E+01
   .42100E+02   .96577E+02  -.50026E+01
   .42300E+02   .96583E+02  -.49640E+01
   .42450E+02   .96587E+02  -.49364E+01
   .42600E+02   .96591E+02  -.49088E+01
   .42800E+02   .96596E+02  -.48720E+01
   .43000E+02   .96601E+02  -.48352E+01
   .43200E+02   .96605E+02  -.48003E+01
   .43400E+02   .96609E+02  -.47654E+01
   .43800E+02   .96617E+02  -.46955E+01
   .44100E+02   .96622E+02  -.46454E+01
   .44500E+02   .96629E+02  -.45785E+01
   .44900E+02   .96635E+02  -.45143E+01
   .45300E+02   .96641E+02  -.44501E+01
   .45600E+02   .96644E+02  -.44037E+01
   .46000E+02   .96648E+02  -.43419E+01
   .46300E+02   .96651E+02  -.42971E+01
   .46500E+02   .96653E+02  -.42672E+01
   .46800E+02   .96655E+02  -.42236E+01
   .47000E+02   .96656E+02  -.41945E+01
   .47500E+02   .96658E+02  -.41248E+01
   .47800E+02   .96660E+02  -.40830E+01
   .48000E+02   .96660E+02  -.40551E+01
   .48300E+02   .96661E+02  -.40155E+01
   .48500E+02   .96661E+02  -.39890E+01
   .49000E+02   .96662E+02  -.39230E+01
   .49500E+02   .96662E+02  -.38596E+01
   .49800E+02   .96661E+02  -.38225E+01
   .50000E+02   .96661E+02  -.37978E+01
   .50500E+02   .96660E+02  -.37377E+01
   .51000E+02   .96659E+02  -.36776E+01
   .51500E+02   .96657E+02  -.36206E+01
   .52000E+02   .96654E+02  -.35635E+01
   .52500E+02   .96651E+02  -.35092E+01
   .53000E+02   .96647E+02  -.34550E+01
   .53500E+02   .96643E+02  -.34033E+01
   .54000E+02   .96639E+02  -.33517E+01
   .54500E+02   .96634E+02  -.33025E+01
   .55000E+02   .96630E+02  -.32533E+01
   .55500E+02   .96625E+02  -.32062E+01
   .56000E+02   .96620E+02  -.31592E+01
   .56800E+02   .96611E+02  -.30870E+01
   .57530E+02   .96602E+02  -.30234E+01
   .58000E+02   .96596E+02  -.29836E+01
   .58500E+02   .96590E+02  -.29422E+01
   .59540E+02   .96576E+02  -.28589E+01
   .59800E+02   .96573E+02  -.28387E+01
   .60000E+02   .96571E+02  -.28233E+01
   .60800E+02   .96560E+02  -.27625E+01
   .61500E+02   .96550E+02  -.27111E+01
   .62300E+02   .96538E+02  -.26542E+01
   .63000E+02   .96528E+02  -.26059E+01
   .64000E+02   .96513E+02  -.25394E+01
   .65000E+02   .96497E+02  -.24756E+01
   .65900E+02   .96483E+02  -.24202E+01
   .66830E+02   .96469E+02  -.23649E+01
   .67400E+02   .96460E+02  -.23321E+01
   .68000E+02   .96450E+02  -.22983E+01
   .69000E+02   .96434E+02  -.22437E+01
   .70000E+02   .96418E+02  -.21911E+01
   .71000E+02   .96401E+02  -.21402E+01
   .72000E+02   .96385E+02  -.20912E+01
   .73500E+02   .96360E+02  -.20209E+01
   .74960E+02   .96335E+02  -.19561E+01
   .75500E+02   .96326E+02  -.19330E+01
   .76000E+02   .96317E+02  -.19120E+01
   .77110E+02   .96298E+02  -.18666E+01
   .78600E+02   .96273E+02  -.18083E+01
   .80000E+02   .96249E+02  -.17562E+01
   .80500E+02   .96241E+02  -.17380E+01
   .81031E+02   .96231E+02  -.17191E+01
   .82500E+02   .96206E+02  -.16685E+01
   .84000E+02   .96180E+02  -.16192E+01
   .85000E+02   .96162E+02  -.15877E+01
   .86000E+02   .96145E+02  -.15571E+01
   .87000E+02   .96127E+02  -.15274E+01
   .88000E+02   .96110E+02  -.14986E+01
   .89000E+02   .96092E+02  -.14707E+01
   .90000E+02   .96074E+02  -.14436E+01
   .91500E+02   .96047E+02  -.14044E+01
   .93000E+02   .96020E+02  -.13668E+01
   .94000E+02   .96001E+02  -.13427E+01
   .95000E+02   .95983E+02  -.13192E+01
   .96500E+02   .95954E+02  -.12852E+01
   .98000E+02   .95926E+02  -.12525E+01
   .99000E+02   .95906E+02  -.12315E+01
   .99500E+02   .95896E+02  -.12212E+01
   .10000E+03   .95886E+02  -.12111E+01
   .10150E+03   .95856E+02  -.11813E+01
   .10300E+03   .95825E+02  -.11527E+01
   .10400E+03   .95804E+02  -.11342E+01
   .10500E+03   .95782E+02  -.11163E+01
   .10650E+03   .95749E+02  -.10901E+01
   .10800E+03   .95715E+02  -.10649E+01
   .10900E+03   .95691E+02  -.10487E+01
   .11000E+03   .95666E+02  -.10328E+01
   .11150E+03   .95628E+02  -.10097E+01
   .11300E+03   .95588E+02  -.98737E+00
   .11400E+03   .95560E+02  -.97294E+00
   .11500E+03   .95531E+02  -.95885E+00
   .11580E+03   .95507E+02  -.94789E+00
   .11650E+03   .95485E+02  -.93831E+00
   .11730E+03   .95459E+02  -.92773E+00
   .11800E+03   .95436E+02  -.91847E+00
   .11900E+03   .95400E+02  -.90575E+00
   .12000E+03   .95363E+02  -.89303E+00
   .12100E+03   .95324E+02  -.88087E+00
   .12150E+03   .95303E+02  -.87479E+00
   .12200E+03   .95282E+02  -.86871E+00
   .12250E+03   .95259E+02  -.86289E+00
   .12300E+03   .95236E+02  -.85707E+00
   .12350E+03   .95212E+02  -.85124E+00
   .12400E+03   .95187E+02  -.84542E+00
   .12450E+03   .95161E+02  -.83985E+00
   .12500E+03   .95134E+02  -.83427E+00
   .12550E+03   .95106E+02  -.82870E+00
   .12600E+03   .95076E+02  -.82312E+00
   .12650E+03   .95044E+02  -.81779E+00
   .12700E+03   .95011E+02  -.81245E+00
   .12750E+03   .94976E+02  -.80711E+00
   .12800E+03   .94938E+02  -.80177E+00
   .12850E+03   .94898E+02  -.79665E+00
   .12900E+03   .94855E+02  -.79153E+00
   .12930E+03   .94827E+02  -.78846E+00
   .12950E+03   .94809E+02  -.78641E+00
   .12980E+03   .94779E+02  -.78334E+00
   .13000E+03   .94758E+02  -.78129E+00
   .13030E+03   .94726E+02  -.77834E+00
   .13050E+03   .94703E+02  -.77637E+00
   .13080E+03   .94668E+02  -.77343E+00
   .13100E+03   .94643E+02  -.77146E+00
   .13130E+03   .94603E+02  -.76851E+00
   .13150E+03   .94576E+02  -.76655E+00
   .13180E+03   .94531E+02  -.76360E+00
   .13200E+03   .94500E+02  -.76163E+00
   .13230E+03   .94449E+02  -.75877E+00
   .13250E+03   .94413E+02  -.75687E+00
   .13280E+03   .94355E+02  -.75401E+00
   .13300E+03   .94312E+02  -.75210E+00
   .13315E+03   .94278E+02  -.75070E+00
   .13330E+03   .94243E+02  -.74929E+00
   .13340E+03   .94217E+02  -.74836E+00
   .13350E+03   .94191E+02  -.74743E+00
   .13365E+03   .94150E+02  -.74602E+00
   .13380E+03   .94106E+02  -.74462E+00
   .13390E+03   .94074E+02  -.74369E+00
   .13400E+03   .94041E+02  -.74275E+00
   .13415E+03   .93988E+02  -.74137E+00
   .13430E+03   .93930E+02  -.73999E+00
   .13440E+03   .93889E+02  -.73907E+00
   .13450E+03   .93844E+02  -.73815E+00
   .13457E+03   .93811E+02  -.73751E+00
   .13465E+03   .93771E+02  -.73678E+00
   .13472E+03   .93733E+02  -.73615E+00
   .13480E+03   .93688E+02  -.73542E+00
   .13485E+03   .93657E+02  -.73496E+00
   .13490E+03   .93625E+02  -.73450E+00
   .13495E+03   .93592E+02  -.73405E+00
   .13500E+03   .93557E+02  -.73359E+00
   .13507E+03   .93504E+02  -.73296E+00
   .13511E+03   .93471E+02  -.73260E+00
   .13515E+03   .93437E+02  -.73224E+00
   .13518E+03   .93411E+02  -.73197E+00
   .13522E+03   .93373E+02  -.73160E+00
   .13526E+03   .93333E+02  -.73124E+00
   .13530E+03   .93290E+02  -.73088E+00
   .13532E+03   .93268E+02  -.73070E+00
   .13535E+03   .93233E+02  -.73043E+00
   .13537E+03   .93208E+02  -.73025E+00
   .13540E+03   .93169E+02  -.72998E+00
   .13542E+03   .93141E+02  -.72980E+00
   .13545E+03   .93097E+02  -.72953E+00
   .13547E+03   .93066E+02  -.72935E+00
   .13550E+03   .93015E+02  -.72908E+00
   .13553E+03   .92959E+02  -.72881E+00
   .13555E+03   .92917E+02  -.72863E+00
   .13556E+03   .92895E+02  -.72854E+00
   .13557E+03   .92871E+02  -.72845E+00
   .13559E+03   .92831E+02  -.72832E+00
   .13559E+03   .92810E+02  -.72826E+00
   .13560E+03   .92784E+02  -.72818E+00
   .13560E+03   .92765E+02  -.72814E+00
   .13561E+03   .92744E+02  -.72809E+00
   .13562E+03   .92720E+02  -.72805E+00
   .13562E+03   .92703E+02  -.72802E+00
   .13562E+03   .92690E+02  -.72800E+00
   .13562E+03   .92674E+02  -.72799E+00
   .13562E+03   .92655E+02  -.72797E+00
   .13563E+03   .92630E+02  -.72795E+00
   .13563E+03   .92554E+02  -.72793E+00
   .13563E+03   .92550E+02  -.89252E+00
   .13563E+03   .92546E+02  -.89251E+00
   .13563E+03   .92609E+02  -.89251E+00
   .13563E+03   .92624E+02  -.89251E+00
   .13564E+03   .92638E+02  -.89250E+00
   .13564E+03   .92647E+02  -.89250E+00
   .13564E+03   .92654E+02  -.89250E+00
   .13564E+03   .92659E+02  -.89249E+00
   .13565E+03   .92663E+02  -.89249E+00
   .13565E+03   .92667E+02  -.89248E+00
   .13565E+03   .92668E+02  -.89248E+00
   .13566E+03   .92667E+02  -.89247E+00
   .13567E+03   .92661E+02  -.89245E+00
   .13568E+03   .92643E+02  -.89243E+00
   .13570E+03   .92620E+02  -.89240E+00
   .13571E+03   .92592E+02  -.89238E+00
   .13573E+03   .92560E+02  -.89235E+00
   .13574E+03   .92524E+02  -.89233E+00
   .13576E+03   .92484E+02  -.89230E+00
   .13577E+03   .92439E+02  -.89228E+00
   .13579E+03   .92390E+02  -.89225E+00
   .13580E+03   .92354E+02  -.89224E+00
   .13581E+03   .92315E+02  -.89222E+00
   .13582E+03   .92272E+02  -.89220E+00
   .13583E+03   .92227E+02  -.89219E+00
   .13584E+03   .92187E+02  -.89218E+00
   .13585E+03   .92150E+02  -.89216E+00
   .13585E+03   .92104E+02  -.89215E+00
   .13586E+03   .92061E+02  -.89214E+00
   .13587E+03   .92007E+02  -.89213E+00
   .13588E+03   .91955E+02  -.89211E+00
   .13588E+03   .91899E+02  -.89210E+00
   .13589E+03   .91827E+02  -.89209E+00
   .13590E+03   .91745E+02  -.89208E+00
   .13590E+03   .91699E+02  -.89207E+00
   .13590E+03   .91663E+02  -.89206E+00
   .13591E+03   .91610E+02  -.89206E+00
   .13591E+03   .91553E+02  -.89205E+00
   .13592E+03   .91490E+02  -.89204E+00
   .13592E+03   .91438E+02  -.89204E+00
   .13592E+03   .91381E+02  -.89204E+00
   .13593E+03   .91340E+02  -.89203E+00
   .13593E+03   .91272E+02  -.89203E+00
   .13593E+03   .91223E+02  -.89202E+00
   .13593E+03   .91140E+02  -.89202E+00
   .13593E+03   .91079E+02  -.89201E+00
   .13594E+03   .90973E+02  -.89201E+00
   .13594E+03   .90891E+02  -.89201E+00
   .13594E+03   .90796E+02  -.89200E+00
   .13594E+03   .90684E+02  -.89200E+00
   .13595E+03   .90597E+02  -.89200E+00
   .13595E+03   .90466E+02  -.89200E+00
   .13595E+03   .90293E+02  -.89199E+00
   .13595E+03   .90130E+02  -.89199E+00
   .13595E+03   .89742E+02  -.89199E+00
   .13595E+03   .89362E+02  -.89198E+00
   .13595E+03   .89410E+02  -.89198E+00
   .13596E+03   .89587E+02  -.89198E+00
   .13596E+03   .89728E+02  -.43784E+01
   .13596E+03   .89867E+02  -.11965E+01
   .13596E+03   .90324E+02  -.15794E+01
   .13596E+03   .90117E+02  -.21650E+01
   .13596E+03   .90065E+02  -.29134E+01
   .13596E+03   .90380E+02  -.29076E+01
   .13597E+03   .90675E+02  -.29019E+01
   .13597E+03   .90808E+02  -.28961E+01
   .13597E+03   .90912E+02  -.28904E+01
   .13597E+03   .90999E+02  -.28859E+01
   .13597E+03   .91073E+02  -.28813E+01
   .13598E+03   .91139E+02  -.28772E+01
   .13598E+03   .91196E+02  -.28730E+01
   .13598E+03   .91247E+02  -.28715E+01
   .13598E+03   .91292E+02  -.28700E+01
   .13598E+03   .91335E+02  -.28711E+01
   .13599E+03   .91376E+02  -.28722E+01
   .13599E+03   .91415E+02  -.28732E+01
   .13599E+03   .91450E+02  -.28743E+01
   .13599E+03   .91502E+02  -.28776E+01
   .13600E+03   .91565E+02  -.28821E+01
   .13600E+03   .91626E+02  -.28851E+01
   .13601E+03   .91682E+02  -.28882E+01
   .13601E+03   .91734E+02  -.28886E+01
   .13601E+03   .91783E+02  -.28890E+01
   .13602E+03   .91828E+02  -.28878E+01
   .13602E+03   .91860E+02  -.28869E+01
   .13602E+03   .91900E+02  -.28852E+01
   .13603E+03   .91937E+02  -.28835E+01
   .13603E+03   .91971E+02  -.28819E+01
   .13604E+03   .91995E+02  -.28807E+01
   .13604E+03   .92055E+02  -.28794E+01
   .13605E+03   .92103E+02  -.28783E+01
   .13606E+03   .92154E+02  -.28792E+01
   .13607E+03   .92197E+02  -.28799E+01
   .13607E+03   .92243E+02  -.28800E+01
   .13608E+03   .92281E+02  -.28801E+01
   .13609E+03   .92322E+02  -.28798E+01
   .13610E+03   .92355E+02  -.28796E+01
   .13611E+03   .92422E+02  -.28791E+01
   .13612E+03   .92483E+02  -.28786E+01
   .13614E+03   .92538E+02  -.28782E+01
   .13615E+03   .92590E+02  -.28777E+01
   .13617E+03   .92637E+02  -.28773E+01
   .13618E+03   .92682E+02  -.28769E+01
   .13620E+03   .92724E+02  -.28765E+01
   .13622E+03   .92776E+02  -.28760E+01
   .13624E+03   .92825E+02  -.28754E+01
   .13626E+03   .92859E+02  -.28750E+01
   .13627E+03   .92891E+02  -.28746E+01
   .13629E+03   .92933E+02  -.28741E+01
   .13631E+03   .92971E+02  -.28736E+01
   .13633E+03   .93008E+02  -.28730E+01
   .13635E+03   .93043E+02  -.28725E+01
   .13638E+03   .93092E+02  -.28719E+01
   .13642E+03   .93154E+02  -.28710E+01
   .13646E+03   .93210E+02  -.28701E+01
   .13650E+03   .93262E+02  -.28693E+01
   .13653E+03   .93299E+02  -.28682E+01
   .13657E+03   .93345E+02  -.28669E+01
   .13661E+03   .93389E+02  -.28655E+01
   .13665E+03   .93429E+02  -.28642E+01
   .13668E+03   .93458E+02  -.28631E+01
   .13672E+03   .93495E+02  -.28618E+01
   .13680E+03   .93563E+02  -.28590E+01
   .13685E+03   .93603E+02  -.28578E+01
   .13690E+03   .93641E+02  -.28566E+01
   .13695E+03   .93676E+02  -.28554E+01
   .13700E+03   .93711E+02  -.28542E+01
   .13707E+03   .93757E+02  -.28517E+01
   .13715E+03   .93806E+02  -.28489E+01
   .13722E+03   .93847E+02  -.28464E+01
   .13730E+03   .93890E+02  -.28436E+01
   .13735E+03   .93916E+02  -.28418E+01
   .13740E+03   .93941E+02  -.28400E+01
   .13750E+03   .93988E+02  -.28365E+01
   .13765E+03   .94053E+02  -.28321E+01
   .13780E+03   .94112E+02  -.28276E+01
   .13790E+03   .94149E+02  -.28247E+01
   .13800E+03   .94185E+02  -.28218E+01
   .13820E+03   .94251E+02  -.28159E+01
   .13830E+03   .94283E+02  -.28129E+01
   .13840E+03   .94313E+02  -.28100E+01
   .13850E+03   .94343E+02  -.28071E+01
   .13860E+03   .94371E+02  -.28041E+01
   .13880E+03   .94423E+02  -.27983E+01
   .13900E+03   .94473E+02  -.27924E+01
   .13920E+03   .94519E+02  -.27865E+01
   .13935E+03   .94551E+02  -.27821E+01
   .13950E+03   .94583E+02  -.27777E+01
   .13970E+03   .94623E+02  -.27718E+01
   .13990E+03   .94661E+02  -.27658E+01
   .14010E+03   .94697E+02  -.27599E+01
   .14030E+03   .94731E+02  -.27540E+01
   .14050E+03   .94764E+02  -.27480E+01
   .14070E+03   .94795E+02  -.27421E+01
   .14085E+03   .94818E+02  -.27377E+01
   .14100E+03   .94839E+02  -.27332E+01
   .14130E+03   .94881E+02  -.27250E+01
   .14150E+03   .94908E+02  -.27196E+01
   .14180E+03   .94947E+02  -.27114E+01
   .14200E+03   .94973E+02  -.27059E+01
   .14230E+03   .95009E+02  -.26978E+01
   .14250E+03   .95033E+02  -.26923E+01
   .14280E+03   .95066E+02  -.26841E+01
   .14300E+03   .95088E+02  -.26787E+01
   .14330E+03   .95119E+02  -.26699E+01
   .14360E+03   .95149E+02  -.26610E+01
   .14390E+03   .95177E+02  -.26522E+01
   .14420E+03   .95204E+02  -.26434E+01
   .14450E+03   .95229E+02  -.26345E+01
   .14480E+03   .95254E+02  -.26257E+01
   .14510E+03   .95278E+02  -.26169E+01
   .14540E+03   .95302E+02  -.26081E+01
   .14570E+03   .95324E+02  -.25999E+01
   .14600E+03   .95346E+02  -.25917E+01
   .14630E+03   .95367E+02  -.25835E+01
   .14670E+03   .95394E+02  -.25726E+01
   .14700E+03   .95413E+02  -.25650E+01
   .14730E+03   .95432E+02  -.25573E+01
   .14800E+03   .95475E+02  -.25395E+01
   .14850E+03   .95504E+02  -.25272E+01
   .14900E+03   .95531E+02  -.25149E+01
   .14950E+03   .95558E+02  -.25032E+01
   .14980E+03   .95574E+02  -.24961E+01
   .14990E+03   .95579E+02  -.24938E+01
   .15000E+03   .95584E+02  -.24914E+01
   .15050E+03   .95610E+02  -.24791E+01
   .15100E+03   .95634E+02  -.24668E+01
   .15150E+03   .95657E+02  -.24545E+01
   .15200E+03   .95679E+02  -.24421E+01
   .15250E+03   .95701E+02  -.24302E+01
   .15300E+03   .95721E+02  -.24183E+01
   .15350E+03   .95742E+02  -.24064E+01
   .15400E+03   .95761E+02  -.23944E+01
   .15450E+03   .95780E+02  -.23829E+01
   .15500E+03   .95798E+02  -.23714E+01
   .15550E+03   .95815E+02  -.23598E+01
   .15600E+03   .95832E+02  -.23483E+01
   .15650E+03   .95849E+02  -.23371E+01
   .15700E+03   .95865E+02  -.23259E+01
   .15750E+03   .95881E+02  -.23147E+01
   .15800E+03   .95896E+02  -.23036E+01
   .15850E+03   .95911E+02  -.22927E+01
   .15900E+03   .95925E+02  -.22819E+01
   .15950E+03   .95939E+02  -.22711E+01
   .16000E+03   .95953E+02  -.22603E+01
   .16100E+03   .95979E+02  -.22386E+01
   .16200E+03   .96004E+02  -.22169E+01
   .16280E+03   .96022E+02  -.22003E+01
   .16350E+03   .96038E+02  -.21858E+01
   .16430E+03   .96055E+02  -.21696E+01
   .16500E+03   .96070E+02  -.21554E+01
   .16600E+03   .96090E+02  -.21361E+01
   .16700E+03   .96109E+02  -.21168E+01
   .16800E+03   .96127E+02  -.20980E+01
   .16900E+03   .96144E+02  -.20793E+01
   .17000E+03   .96161E+02  -.20611E+01
   .17100E+03   .96177E+02  -.20429E+01
   .17200E+03   .96193E+02  -.20252E+01
   .17300E+03   .96207E+02  -.20075E+01
   .17400E+03   .96222E+02  -.19904E+01
   .17500E+03   .96235E+02  -.19733E+01
   .17600E+03   .96248E+02  -.19567E+01
   .17700E+03   .96261E+02  -.19401E+01
   .17780E+03   .96271E+02  -.19272E+01
   .17850E+03   .96279E+02  -.19160E+01
   .17930E+03   .96288E+02  -.19031E+01
   .18000E+03   .96296E+02  -.18919E+01
   .18080E+03   .96305E+02  -.18794E+01
   .18150E+03   .96313E+02  -.18685E+01
   .18230E+03   .96321E+02  -.18561E+01
   .18300E+03   .96328E+02  -.18452E+01
   .18400E+03   .96338E+02  -.18302E+01
   .18500E+03   .96347E+02  -.18151E+01
   .18650E+03   .96360E+02  -.17933E+01
   .18800E+03   .96373E+02  -.17716E+01
   .18900E+03   .96381E+02  -.17575E+01
   .19000E+03   .96389E+02  -.17435E+01
   .19150E+03   .96400E+02  -.17231E+01
   .19300E+03   .96411E+02  -.17027E+01
   .19400E+03   .96418E+02  -.16896E+01
   .19500E+03   .96424E+02  -.16765E+01
   .19650E+03   .96433E+02  -.16574E+01
   .19800E+03   .96442E+02  -.16383E+01
   .19900E+03   .96448E+02  -.16260E+01
   .20000E+03   .96453E+02  -.16136E+01
